nodenumber     x-coordinate     y-coordinate     z-coordinate         pressure velocity-magnitude      sound-speed      temperature rel-velocity-magnitude relative-velocity-angle 
         1 -2.216901913E-02  1.039879580E-01 -4.300600202E-02  8.753871783E+04  1.538026631E+02  3.330624734E+02  2.762450133E+02  2.354579300E+02  8.591292133E-01 
         2 -2.197401757E-02  1.042260031E-01 -4.002397295E-02  8.745798615E+04  1.544460707E+02  3.330038218E+02  2.761476403E+02  2.363246421E+02  8.588187678E-01 
         3 -2.150271627E-02  1.045375264E-01 -3.708169353E-02  8.733070917E+04  1.551824014E+02  3.329279075E+02  2.760217731E+02  2.374575052E+02  8.591410089E-01 
         4 -2.072290556E-02  1.049359494E-01 -3.421635317E-02  8.719544202E+04  1.556030202E+02  3.328807726E+02  2.759435887E+02  2.373122287E+02  8.568280712E-01 
         5 -1.964621854E-02  1.053757771E-01 -3.145501365E-02  8.708994458E+04  1.563516951E+02  3.328222160E+02  2.758465819E+02  2.384406152E+02  8.570593577E-01 
         6 -1.833909717E-02  1.058829391E-01 -2.880182754E-02  8.698503174E+04  1.570878830E+02  3.327597466E+02  2.757431035E+02  2.394070783E+02  8.569999747E-01 
         7 -1.686396899E-02  1.064019756E-01 -2.624136390E-02  8.681309937E+04  1.581503620E+02  3.326449022E+02  2.755528288E+02  2.405269651E+02  8.555207606E-01 
         8 -1.524276490E-02  1.069101094E-01 -2.376908005E-02  8.663962793E+04  1.590604086E+02  3.325506439E+02  2.753966088E+02  2.416287556E+02  8.547462355E-01 
         9 -1.353040875E-02  1.074492491E-01 -2.136449246E-02  8.644070105E+04  1.602553256E+02  3.324350362E+02  2.752051351E+02  2.428624980E+02  8.532483969E-01 
        10 -1.175719847E-02  1.079385502E-01 -1.899452623E-02  8.623540521E+04  1.613850750E+02  3.323349495E+02  2.750394323E+02  2.439594791E+02  8.514416758E-01 
        11 -9.920451205E-03  1.084473482E-01 -1.667649769E-02  8.610046149E+04  1.625818310E+02  3.322648569E+02  2.749235543E+02  2.444638970E+02  8.473094967E-01 
        12 -8.053093039E-03  1.089314126E-01 -1.437870322E-02  8.627415894E+04  1.628233240E+02  3.323983369E+02  2.751444827E+02  2.442291815E+02  8.459479585E-01 
        13 -6.139911673E-03  1.093816015E-01 -1.211111235E-02  8.670968213E+04  1.622828517E+02  3.326283302E+02  2.755253568E+02  2.430712066E+02  8.453330826E-01 
        14 -4.213714023E-03  1.098625599E-01 -9.853315987E-03  8.756614844E+04  1.605177498E+02  3.330476284E+02  2.762205372E+02  2.404936113E+02  8.466180079E-01 
        15 -2.267252226E-03  1.102821410E-01 -7.616721013E-03  8.856265430E+04  1.563275928E+02  3.335795727E+02  2.771035986E+02  2.370214090E+02  8.586471230E-01 
        16 -3.058463972E-04  1.106716081E-01 -5.380345181E-03  8.927659790E+04  1.503523588E+02  3.339237661E+02  2.776759138E+02  2.351466665E+02  8.862602245E-01 
        17  1.649896870E-03  1.110991589E-01 -3.144821902E-03  8.752575977E+04  1.450554667E+02  3.330852909E+02  2.762844532E+02  2.405148518E+02  9.339557150E-01 
        18  3.605378217E-03  1.114680886E-01 -8.997268064E-04  7.568770544E+04  1.755019107E+02  3.262405810E+02  2.650457506E+02  2.866235819E+02  9.423823375E-01 
        19  5.548952344E-03  1.118349081E-01  1.356589372E-03  7.006861377E+04  2.120907750E+02  3.224994621E+02  2.590039539E+02  3.105135484E+02  8.426609868E-01 
        20  7.472030685E-03  1.121892539E-01  3.633809071E-03  7.297004001E+04  2.134304861E+02  3.245173465E+02  2.622601514E+02  2.985109528E+02  7.854609499E-01 
        21  9.366594022E-03  1.125505666E-01  5.932977735E-03  7.659079358E+04  2.072044541E+02  3.271357365E+02  2.665054746E+02  2.822813213E+02  7.544293771E-01 
        22  1.122147558E-02  1.129077905E-01  8.263617067E-03  7.898515907E+04  2.060011462E+02  3.287033965E+02  2.690645448E+02  2.717054733E+02  7.210374174E-01 
        23  1.303284284E-02  1.132507638E-01  1.062953057E-02  8.055026851E+04  2.084388197E+02  3.296108148E+02  2.705521468E+02  2.680579142E+02  6.955878342E-01 
        24  1.479928419E-02  1.136234762E-01  1.303021626E-02  8.174177927E+04  2.138805265E+02  3.301403159E+02  2.714221704E+02  2.659099224E+02  6.612622500E-01 
        25  1.649617427E-02  1.139938279E-01  1.547769530E-02  8.280858661E+04  2.192867970E+02  3.305857463E+02  2.721544743E+02  2.630347373E+02  6.239428218E-01 
        26  1.811807173E-02  1.143837002E-01  1.797032872E-02  8.353051001E+04  2.247656400E+02  3.308697972E+02  2.726214070E+02  2.614338613E+02  5.905047627E-01 
        27  1.968166241E-02  1.148013513E-01  2.049621310E-02  8.359821448E+04  2.316456027E+02  3.308664207E+02  2.726152778E+02  2.622512395E+02  5.585007672E-01 
        28  2.119101764E-02  1.152299366E-01  2.305322148E-02  8.304118754E+04  2.408130575E+02  3.304974467E+02  2.720076355E+02  2.657404860E+02  5.235912066E-01 
        29  2.266338778E-02  1.156643914E-01  2.563116057E-02  8.241513770E+04  2.495462503E+02  3.301586607E+02  2.714501255E+02  2.686242077E+02  4.892196429E-01 
        30  2.408077791E-02  1.161159634E-01  2.823658064E-02  8.187846509E+04  2.573052182E+02  3.299179251E+02  2.710543225E+02  2.704519739E+02  4.567138092E-01 
        31  2.544088325E-02  1.165921105E-01  3.086849856E-02  8.131034595E+04  2.658295627E+02  3.294827061E+02  2.703406544E+02  2.736124339E+02  4.254985843E-01 
        32  2.674433127E-02  1.170738851E-01  3.352942364E-02  8.071451709E+04  2.742183702E+02  3.290726485E+02  2.696684043E+02  2.772134066E+02  3.966235374E-01 
        33  2.797950643E-02  1.175445507E-01  3.622298897E-02  8.017575079E+04  2.815133598E+02  3.289019748E+02  2.693880100E+02  2.796358122E+02  3.689130736E-01 
        34  2.916313541E-02  1.180056499E-01  3.893937175E-02  7.988544980E+04  2.881125363E+02  3.288998550E+02  2.693836964E+02  2.807564662E+02  3.399308579E-01 
        35  3.031249539E-02  1.184785399E-01  4.167042727E-02  8.000939417E+04  2.949206816E+02  3.288519433E+02  2.693051314E+02  2.820976332E+02  3.109304472E-01 
        36  3.139929926E-02  1.189405785E-01  4.442941843E-02  8.026303860E+04  3.007415677E+02  3.290084209E+02  2.695618079E+02  2.823201669E+02  2.829100584E-01 
        37  3.242013936E-02  1.193808800E-01  4.721660669E-02  8.080857923E+04  3.057964988E+02  3.294126122E+02  2.702244759E+02  2.811378936E+02  2.529872175E-01 
        38  3.340677803E-02  1.198011670E-01  5.002067675E-02  8.214650494E+04  3.086561139E+02  3.302289708E+02  2.715665661E+02  2.773349811E+02  2.240805880E-01 
        39  3.430413654E-02  1.201853153E-01  5.285529857E-02  8.392201123E+04  3.098706160E+02  3.313182468E+02  2.733617868E+02  2.720354652E+02  1.979780053E-01 
        40  3.515433510E-02  1.205874318E-01  5.570324370E-02  8.608284473E+04  3.098281078E+02  3.325666809E+02  2.754259338E+02  2.656213570E+02  1.742575839E-01 
        41  3.592907297E-02  1.209644065E-01  5.857535950E-02  8.850093604E+04  3.084778390E+02  3.338781796E+02  2.776024561E+02  2.586083555E+02  1.554890387E-01 
        42  3.664355424E-02  1.213334730E-01  6.146049591E-02  9.096648999E+04  3.060573678E+02  3.350580401E+02  2.795673466E+02  2.517486916E+02  1.436249653E-01 
        43  3.727845098E-02  1.217084379E-01  6.437276718E-02  9.316848462E+04  3.027915230E+02  3.360289259E+02  2.811891241E+02  2.453021002E+02  1.387500549E-01 
        44  3.781448665E-02  1.220744111E-01  6.730672953E-02  9.482479712E+04  2.991817093E+02  3.367936134E+02  2.824698582E+02  2.402574849E+02  1.422698544E-01 
        45  3.826762164E-02  1.224563704E-01  7.025293559E-02  9.588202728E+04  2.958275418E+02  3.373574910E+02  2.834160023E+02  2.366571627E+02  1.506250543E-01 
        46  3.856443464E-02  1.228195695E-01  7.317567491E-02  9.647961719E+04  2.936013031E+02  3.376881561E+02  2.839718170E+02  2.343796616E+02  1.576259956E-01 
        47  3.882754171E-02  1.231963568E-01  7.616928387E-02  9.671544608E+04  2.914759735E+02  3.382013388E+02  2.848374854E+02  2.317455587E+02  1.632914806E-01 
        48  3.896508106E-02  1.235573809E-01  7.913505459E-02  9.665755664E+04  2.863211975E+02  3.393663101E+02  2.868186417E+02  2.234984550E+02  1.691136993E-01 
        49  3.903512947E-02  1.239238609E-01  8.213137167E-02  9.656894287E+04  2.746828227E+02  3.417149739E+02  2.908329523E+02  2.030207911E+02  1.818815824E-01 
        50  3.900153017E-02  1.243001337E-01  8.510504302E-02  9.641043509E+04  2.559542758E+02  3.454916289E+02  2.973048570E+02  1.672436774E+02  1.921756535E-01 
        51  3.889299026E-02  1.246700891E-01  8.806950082E-02  9.640089685E+04  2.398997436E+02  3.492965231E+02  3.038730137E+02  1.199339075E+02  1.539917587E-01 
        52  3.870303970E-02  1.250405990E-01  9.105247242E-02  9.644651831E+04  2.336057663E+02  3.520690155E+02  3.086864405E+02  7.830358839E+01  1.338567979E-02 
        53  3.847530202E-02  1.253810613E-01  9.402032493E-02  9.719880359E+04  2.339712462E+02  3.534002718E+02  3.110186101E+02  4.493943051E+01 -4.414311098E-01 
        54  3.809583015E-02  1.257752167E-01  9.695318516E-02  9.722580664E+04  2.273167686E+02  3.534300346E+02  3.110672112E+02  4.028102970E+01 -4.942089482E-01 
        55  3.767199372E-02  1.261489404E-01  9.992435767E-02  9.782909985E+04  2.381752958E+02  3.525861988E+02  3.095826058E+02  4.797751987E+01 -1.484420782E+00 
        56  3.723780727E-02  1.265196365E-01  1.028569506E-01  1.002963636E+05  2.491050708E+02  3.524476520E+02  3.093388256E+02  5.944973372E+01 -1.371678402E+00 
        57  3.672955052E-02  1.269046997E-01  1.057947981E-01  1.020520315E+05  2.493797781E+02  3.514132609E+02  3.075263844E+02  1.025893099E+02 -2.121336401E-01 
        58  3.615520807E-02  1.273091289E-01  1.087154776E-01  1.029585796E+05  2.407187366E+02  3.490284414E+02  3.033704138E+02  1.509483376E+02  2.230967786E-01 
        59  3.556812424E-02  1.277144368E-01  1.116309472E-01  1.043698159E+05  2.461046391E+02  3.453450825E+02  2.970023305E+02  1.851885403E+02  2.942599626E-01 
        60  3.495651588E-02  1.281329458E-01  1.145394580E-01  1.060161345E+05  2.545334668E+02  3.430570321E+02  2.930762110E+02  1.977915316E+02  2.808654848E-01 
        61  3.433795015E-02  1.285471243E-01  1.174457346E-01  1.073995177E+05  2.572521014E+02  3.426914549E+02  2.924495182E+02  1.953779435E+02  2.564599062E-01 
        62  3.376061330E-02  1.289460490E-01  1.203607660E-01  1.081209496E+05  2.589412220E+02  3.430785818E+02  2.931099541E+02  1.902744329E+02  2.292330719E-01 
        63  3.331803132E-02  1.293309423E-01  1.232882868E-01  1.082634922E+05  2.643670912E+02  3.432470063E+02  2.933976547E+02  1.923632562E+02  2.038865220E-01 
        64  3.310586596E-02  1.296649637E-01  1.262581306E-01  1.081346886E+05  2.691450584E+02  3.433114636E+02  2.935080249E+02  1.979567349E+02  1.957516812E-01 
        65  3.306639982E-02  1.299493947E-01  1.292495641E-01  1.079641928E+05  2.714902709E+02  3.432711054E+02  2.934390014E+02  2.011805397E+02  1.946328073E-01 
        66  3.322486525E-02  1.302097713E-01  1.322380794E-01  1.078396962E+05  2.738226234E+02  3.429103107E+02  2.928227686E+02  2.018325852E+02  1.848494067E-01 
        67  3.356462385E-02  1.304573038E-01  1.352130229E-01  1.076925931E+05  2.740080143E+02  3.428045838E+02  2.926421977E+02  2.029064006E+02  1.898183061E-01 
        68  3.400410102E-02  1.306751199E-01  1.381765647E-01  1.075484059E+05  2.745968623E+02  3.426881857E+02  2.924434373E+02  2.037215240E+02  1.912311788E-01 
        69  3.451963359E-02  1.308741206E-01  1.411278790E-01  1.072887825E+05  2.753503563E+02  3.426208649E+02  2.923284926E+02  2.041852005E+02  1.905410518E-01 
        70  3.508991352E-02  1.310576265E-01  1.440660380E-01  1.069124532E+05  2.760777228E+02  3.425905709E+02  2.922768307E+02  2.052797241E+02  1.923706725E-01 
        71  3.570211579E-02  1.312503676E-01  1.470000000E-01  1.063060605E+05  2.780145073E+02  3.423545990E+02  2.918713074E+02  2.077435932E+02  1.914835423E-01 
        72 -2.843361623E-02  1.708417341E-01 -4.258217492E-02  8.217115088E+04  1.832135887E+02  3.300750895E+02  2.713117542E+02  3.437789087E+02  1.008736115E+00 
        73 -2.838826984E-02  1.709653765E-01 -3.916427879E-02  8.216538495E+04  1.840383496E+02  3.299948359E+02  2.711799176E+02  3.448080163E+02  1.007872362E+00 
        74 -2.835908450E-02  1.711140563E-01 -3.574649433E-02  8.230547864E+04  1.838467406E+02  3.301249762E+02  2.713940361E+02  3.432788465E+02  1.005837036E+00 
        75 -2.838361088E-02  1.712589164E-01 -3.232950605E-02  8.269786133E+04  1.844684744E+02  3.302461910E+02  2.715935364E+02  3.447687578E+02  1.006868027E+00 
        76 -2.841360827E-02  1.714319125E-01 -2.891476756E-02  8.314710449E+04  1.823854260E+02  3.306538219E+02  2.722642961E+02  3.403567262E+02  1.006092634E+00 
        77 -2.833774301E-02  1.716334782E-01 -2.549995819E-02  8.365415662E+04  1.814741722E+02  3.309608912E+02  2.727702702E+02  3.386101038E+02  1.006221618E+00 
        78 -2.791452343E-02  1.719215161E-01 -2.212016887E-02  8.402755322E+04  1.817657833E+02  3.309978371E+02  2.728312349E+02  3.411213531E+02  1.009411853E+00 
        79 -2.700703325E-02  1.722886754E-01 -1.884820631E-02  8.405725415E+04  1.806095090E+02  3.310475864E+02  2.729132595E+02  3.408706961E+02  1.012978815E+00 
        80 -2.544395246E-02  1.727209334E-01 -1.584518523E-02  8.329676489E+04  1.810262842E+02  3.306984453E+02  2.723378882E+02  3.419650278E+02  1.013300906E+00 
        81 -2.351536464E-02  1.732363399E-01 -1.306823492E-02  8.140108763E+04  1.851429673E+02  3.295895841E+02  2.705147633E+02  3.474355252E+02  1.009170371E+00 
        82 -2.134527601E-02  1.737374909E-01 -1.047435973E-02  7.881719116E+04  1.908332189E+02  3.280696653E+02  2.680267355E+02  3.554118365E+02  1.004820063E+00 
        83 -1.897326710E-02  1.742189522E-01 -8.035177519E-03  7.613558618E+04  1.977369959E+02  3.265102323E+02  2.654851968E+02  3.640163158E+02  9.985084953E-01 
        84 -1.652827274E-02  1.746780172E-01 -5.688541800E-03  7.408421472E+04  2.043320022E+02  3.251530223E+02  2.632832210E+02  3.694103994E+02  9.872149639E-01 
        85 -1.397929867E-02  1.751251779E-01 -3.446989688E-03  7.296037793E+04  2.080214467E+02  3.245604596E+02  2.623245997E+02  3.723812242E+02  9.805626404E-01 
        86 -1.139011487E-02  1.755573757E-01 -1.256774906E-03  7.365628442E+04  2.112063932E+02  3.247792521E+02  2.626790400E+02  3.710484848E+02  9.668358844E-01 
        87 -8.734274343E-03  1.759085237E-01  8.667805443E-04  7.783930005E+04  2.046385590E+02  3.275529411E+02  2.671917548E+02  3.588702538E+02  9.655751791E-01 
        88 -6.073383534E-03  1.762548475E-01  2.984781313E-03  8.801344598E+04  1.913068548E+02  3.332071111E+02  2.764964253E+02  3.323754857E+02  9.659867194E-01 
        89 -3.359730182E-03  1.765819110E-01  5.053045394E-03  9.781679138E+04  1.758998265E+02  3.381918600E+02  2.848223871E+02  3.059162209E+02  9.826501929E-01 
        90 -6.741955509E-04  1.768270807E-01  7.130208361E-03  9.696194930E+04  1.678751067E+02  3.377346250E+02  2.840524632E+02  3.116040553E+02  1.018101072E+00 
        91  2.027043660E-03  1.770783858E-01  9.208570588E-03  7.917115138E+04  1.935857158E+02  3.281179346E+02  2.681084954E+02  3.581214202E+02  1.002157728E+00 
        92  4.731686997E-03  1.772422585E-01  1.127155269E-02  7.415217799E+04  2.090978599E+02  3.252157309E+02  2.633859609E+02  3.714168640E+02  9.744400197E-01 
        93  7.454465044E-03  1.773874983E-01  1.334309669E-02  7.405347957E+04  2.085279098E+02  3.250172877E+02  2.630657020E+02  3.713255733E+02  9.764479690E-01 
        94  1.015989937E-02  1.775222933E-01  1.545596277E-02  7.087125768E+04  2.173559755E+02  3.231093798E+02  2.599912807E+02  3.818901795E+02  9.684498622E-01 
        95  1.284858280E-02  1.775661421E-01  1.756817794E-02  6.727280069E+04  2.295078301E+02  3.205719118E+02  2.559252492E+02  3.939276364E+02  9.533999250E-01 
        96  1.551966693E-02  1.776138061E-01  1.970369132E-02  6.428674457E+04  2.392978613E+02  3.183989785E+02  2.524664006E+02  4.027978320E+02  9.402353298E-01 
        97  1.817410325E-02  1.776258069E-01  2.186017323E-02  6.169627563E+04  2.459337525E+02  3.168703594E+02  2.500450153E+02  4.083424182E+02  9.306068998E-01 
        98  2.080993586E-02  1.775631240E-01  2.403936301E-02  5.979805603E+04  2.541454759E+02  3.154488463E+02  2.478096776E+02  4.155308876E+02  9.201021194E-01 
        99  2.341570779E-02  1.774969016E-01  2.625394818E-02  5.931260144E+04  2.592355371E+02  3.151511497E+02  2.473475156E+02  4.177300749E+02  9.084247239E-01 
       100  2.600295182E-02  1.773818036E-01  2.848806157E-02  6.097139722E+04  2.596385231E+02  3.166904221E+02  2.497758741E+02  4.112596502E+02  8.920806721E-01 
       101  2.856627515E-02  1.771883875E-01  3.074502562E-02  6.625693921E+04  2.556420536E+02  3.203557138E+02  2.556365299E+02  3.957435436E+02  8.725723587E-01 
       102  3.110662233E-02  1.769811535E-01  3.302644514E-02  7.477166333E+04  2.454273453E+02  3.260067635E+02  2.647481403E+02  3.690844688E+02  8.524617068E-01 
       103  3.362247542E-02  1.767159818E-01  3.532849163E-02  8.165186292E+04  2.410430884E+02  3.301477547E+02  2.714548502E+02  3.502504339E+02  8.291495834E-01 
       104  3.610895472E-02  1.763647845E-01  3.765120331E-02  8.280010388E+04  2.464232395E+02  3.306400566E+02  2.722476993E+02  3.491408329E+02  8.087211410E-01 
       105  3.856497337E-02  1.759966372E-01  4.000321012E-02  8.018076465E+04  2.556867751E+02  3.290953871E+02  2.697103052E+02  3.563600113E+02  7.908961480E-01 
       106  4.103059304E-02  1.755360248E-01  4.234569910E-02  7.791862739E+04  2.646275343E+02  3.276545543E+02  2.673494511E+02  3.648251296E+02  7.763093495E-01 
       107  4.340106546E-02  1.750377176E-01  4.474435622E-02  7.839005978E+04  2.674905055E+02  3.281682116E+02  2.681898230E+02  3.631568096E+02  7.633359581E-01 
       108  4.575540032E-02  1.745445103E-01  4.717695363E-02  8.190694116E+04  2.669089186E+02  3.303050933E+02  2.716997898E+02  3.528314490E+02  7.458894141E-01 
       109  4.807037784E-02  1.739953488E-01  4.963532790E-02  8.827816260E+04  2.628007393E+02  3.337320890E+02  2.773733149E+02  3.361512661E+02  7.301957272E-01 
       110  5.034733117E-02  1.734133857E-01  5.212084081E-02  9.509473291E+04  2.585212574E+02  3.371646271E+02  2.831013699E+02  3.170817394E+02  7.129422203E-01 
       111  5.258765486E-02  1.728405975E-01  5.464144749E-02  9.965261914E+04  2.573831825E+02  3.394103222E+02  2.868785992E+02  3.052044220E+02  6.978815198E-01 
       112  5.479076840E-02  1.722430532E-01  5.718902978E-02  1.024964080E+05  2.574253311E+02  3.408715658E+02  2.893526583E+02  2.989011641E+02  6.879688017E-01 
       113  5.694737683E-02  1.716020731E-01  5.976586917E-02  1.054191536E+05  2.568874204E+02  3.423533871E+02  2.918743761E+02  2.903275959E+02  6.775726425E-01 
       114  5.911848447E-02  1.709340834E-01  6.233872565E-02  1.088951783E+05  2.562262547E+02  3.438992985E+02  2.945147557E+02  2.812132768E+02  6.671948222E-01 
       115  6.119351897E-02  1.703313828E-01  6.496775561E-02  1.117169949E+05  2.550280356E+02  3.451555738E+02  2.966706433E+02  2.745319910E+02  6.630891990E-01 
       116  6.319798910E-02  1.696485115E-01  6.765543605E-02  1.137775981E+05  2.544774070E+02  3.459541578E+02  2.980444703E+02  2.702407765E+02  6.595785059E-01 
       117  6.520189851E-02  1.689621155E-01  7.034628384E-02  1.157177798E+05  2.539552498E+02  3.466765594E+02  2.992904396E+02  2.655111790E+02  6.559141986E-01 
       118  6.717992039E-02  1.682884043E-01  7.305807409E-02  1.172654272E+05  2.520085392E+02  3.473805771E+02  3.005073328E+02  2.596986666E+02  6.571604107E-01 
       119  6.910755662E-02  1.675987334E-01  7.579818779E-02  1.184702255E+05  2.491809728E+02  3.480199735E+02  3.016141768E+02  2.561116080E+02  6.649155128E-01 
       120  7.101404689E-02  1.668389198E-01  7.852135391E-02  1.194511993E+05  2.465527511E+02  3.484509254E+02  3.023616753E+02  2.544279730E+02  6.737936651E-01 
