nodenumber     x-coordinate     y-coordinate     z-coordinate         pressure velocity-magnitude      sound-speed      temperature rel-velocity-magnitude relative-velocity-angle 
         1 -2.216901913E-02  1.039879580E-01 -4.300600202E-02  8.754878552E+04  1.539582937E+02  3.330500852E+02  2.762243519E+02  2.358012790E+02  8.594210977E-01 
         2 -2.197401757E-02  1.042260031E-01 -4.002397295E-02  8.747166223E+04  1.544285473E+02  3.330086892E+02  2.761556879E+02  2.363381053E+02  8.589319696E-01 
         3 -2.150271627E-02  1.045375264E-01 -3.708169353E-02  8.736934503E+04  1.550447854E+02  3.329531434E+02  2.760635419E+02  2.370095060E+02  8.582155225E-01 
         4 -2.072290556E-02  1.049359494E-01 -3.421635317E-02  8.725168103E+04  1.557352247E+02  3.328910680E+02  2.759606481E+02  2.377434032E+02  8.573863078E-01 
         5 -1.964621854E-02  1.053757771E-01 -3.145501365E-02  8.712196289E+04  1.564444513E+02  3.328244762E+02  2.758502345E+02  2.385054994E+02  8.566002212E-01 
         6 -1.833909717E-02  1.058829391E-01 -2.880182754E-02  8.696827979E+04  1.572130022E+02  3.327452459E+02  2.757189226E+02  2.394173431E+02  8.560611680E-01 
         7 -1.686396899E-02  1.064019756E-01 -2.624136390E-02  8.679350684E+04  1.580512166E+02  3.326527328E+02  2.755656357E+02  2.404198852E+02  8.555052355E-01 
         8 -1.524276490E-02  1.069101094E-01 -2.376908005E-02  8.661207068E+04  1.589820015E+02  3.325548563E+02  2.754034929E+02  2.415082493E+02  8.548044711E-01 
         9 -1.353040875E-02  1.074492491E-01 -2.136449246E-02  8.641521545E+04  1.601134586E+02  3.324475446E+02  2.752257862E+02  2.427420352E+02  8.535722587E-01 
        10 -1.175719847E-02  1.079385502E-01 -1.899452623E-02  8.622259003E+04  1.613967758E+02  3.323413012E+02  2.750499401E+02  2.438592844E+02  8.511140505E-01 
        11 -9.920451205E-03  1.084473482E-01 -1.667649769E-02  8.611052847E+04  1.626257878E+02  3.322777381E+02  2.749446855E+02  2.446741953E+02  8.478594935E-01 
        12 -8.053093039E-03  1.089314126E-01 -1.437870322E-02  8.621856845E+04  1.632471417E+02  3.323343861E+02  2.750384372E+02  2.446309909E+02  8.448710158E-01 
        13 -6.139911673E-03  1.093816015E-01 -1.211111235E-02  8.664317212E+04  1.627474561E+02  3.325663691E+02  2.754225664E+02  2.433375611E+02  8.436378706E-01 
        14 -4.213714023E-03  1.098625599E-01 -9.853315987E-03  8.749057568E+04  1.605639305E+02  3.330213585E+02  2.761767483E+02  2.407100468E+02  8.470874317E-01 
        15 -2.267252226E-03  1.102821410E-01 -7.616721013E-03  8.860690430E+04  1.562502823E+02  3.336274071E+02  2.771829624E+02  2.370657139E+02  8.590468653E-01 
        16 -3.058463972E-04  1.106716081E-01 -5.380345181E-03  8.941470337E+04  1.499118986E+02  3.340067663E+02  2.778137188E+02  2.341391120E+02  8.848509993E-01 
        17  1.649896870E-03  1.110991589E-01 -3.144821902E-03  8.722958264E+04  1.466522603E+02  3.329023418E+02  2.759818244E+02  2.439654095E+02  9.369531833E-01 
        18  3.605378217E-03  1.114680886E-01 -8.997268064E-04  7.606892896E+04  1.740360241E+02  3.264938807E+02  2.654576564E+02  2.836182966E+02  9.385971576E-01 
        19  5.548952344E-03  1.118349081E-01  1.356589372E-03  7.003123877E+04  2.079890689E+02  3.228298404E+02  2.595331881E+02  3.064470432E+02  8.476611208E-01 
        20  7.472030685E-03  1.121892539E-01  3.633809071E-03  7.269259784E+04  2.116186699E+02  3.245507727E+02  2.623108695E+02  2.978096759E+02  7.916492908E-01 
        21  9.366594022E-03  1.125505666E-01  5.932977735E-03  7.629741766E+04  2.086151659E+02  3.267794151E+02  2.659241049E+02  2.856007841E+02  7.594042653E-01 
        22  1.122147558E-02  1.129077905E-01  8.263617067E-03  7.868515176E+04  2.088319842E+02  3.281428553E+02  2.681464563E+02  2.771201819E+02  7.265853821E-01 
        23  1.303284284E-02  1.132507638E-01  1.062953057E-02  8.029613556E+04  2.113436555E+02  3.290067378E+02  2.695593245E+02  2.717623081E+02  6.943412316E-01 
        24  1.479928419E-02  1.136234762E-01  1.303021626E-02  8.150854228E+04  2.157287168E+02  3.296571107E+02  2.706259912E+02  2.680819908E+02  6.587673235E-01 
        25  1.649617427E-02  1.139938279E-01  1.547769530E-02  8.259800360E+04  2.206657951E+02  3.302280600E+02  2.715642371E+02  2.649845085E+02  6.225832081E-01 
        26  1.811807173E-02  1.143837002E-01  1.797032872E-02  8.339029102E+04  2.260624309E+02  3.306392064E+02  2.722404599E+02  2.629736252E+02  5.881195422E-01 
        27  1.968166241E-02  1.148013513E-01  2.049621310E-02  8.356005359E+04  2.329410107E+02  3.307303815E+02  2.723904257E+02  2.631966085E+02  5.540978885E-01 
        28  2.119101764E-02  1.152299366E-01  2.305322148E-02  8.306744225E+04  2.415289716E+02  3.305160716E+02  2.720374456E+02  2.656749911E+02  5.192308718E-01 
        29  2.266338778E-02  1.156643914E-01  2.563116057E-02  8.244559393E+04  2.503103372E+02  3.302071702E+02  2.715292826E+02  2.686533519E+02  4.852904491E-01 
        30  2.408077791E-02  1.161159634E-01  2.823658064E-02  8.190415173E+04  2.584595091E+02  3.299612038E+02  2.711247642E+02  2.714014328E+02  4.540425683E-01 
        31  2.544088325E-02  1.165921105E-01  3.086849856E-02  8.135377478E+04  2.665363722E+02  3.296700702E+02  2.706466594E+02  2.742996526E+02  4.240327659E-01 
        32  2.674433127E-02  1.170738851E-01  3.352942364E-02  8.077624097E+04  2.745512397E+02  3.293531990E+02  2.701266401E+02  2.772772312E+02  3.948526550E-01 
        33  2.797950643E-02  1.175445507E-01  3.622298897E-02  8.022490237E+04  2.823915670E+02  3.290758944E+02  2.696718873E+02  2.800379899E+02  3.658298827E-01 
        34  2.916313541E-02  1.180056499E-01  3.893937175E-02  7.991047383E+04  2.895980572E+02  3.289328319E+02  2.694377601E+02  2.819756812E+02  3.369755343E-01 
        35  3.031249539E-02  1.184785399E-01  4.167042727E-02  8.006097177E+04  2.953496878E+02  3.289956529E+02  2.695411406E+02  2.824233420E+02  3.100826952E-01 
        36  3.139929926E-02  1.189405785E-01  4.442941843E-02  8.036943509E+04  3.006122441E+02  3.291539083E+02  2.698004676E+02  2.822595586E+02  2.833270526E-01 
        37  3.242013936E-02  1.193808800E-01  4.721660669E-02  8.091006688E+04  3.056239449E+02  3.293325743E+02  2.700933646E+02  2.812964738E+02  2.544903726E-01 
        38  3.340677803E-02  1.198011670E-01  5.002067675E-02  8.211974329E+04  3.085256464E+02  3.299267285E+02  2.710687095E+02  2.781405262E+02  2.280046525E-01 
        39  3.430413654E-02  1.201853153E-01  5.285529857E-02  8.366737061E+04  3.102795029E+02  3.308419561E+02  2.725752449E+02  2.736214895E+02  2.021202687E-01 
        40  3.515433510E-02  1.205874318E-01  5.570324370E-02  8.554551563E+04  3.108092804E+02  3.319120693E+02  2.743416710E+02  2.680276642E+02  1.785597103E-01 
        41  3.592907297E-02  1.209644065E-01  5.857535950E-02  8.766978931E+04  3.099781971E+02  3.330675440E+02  2.762555289E+02  2.614830489E+02  1.587386038E-01 
        42  3.664355424E-02  1.213334730E-01  6.146049591E-02  8.992781421E+04  3.076572008E+02  3.342499948E+02  2.782206273E+02  2.543108096E+02  1.449533764E-01 
        43  3.727845098E-02  1.217084379E-01  6.437276718E-02  9.211247046E+04  3.043620796E+02  3.354151049E+02  2.801630650E+02  2.473331451E+02  1.379112746E-01 
        44  3.781448665E-02  1.220744111E-01  6.730672953E-02  9.396442456E+04  3.009539099E+02  3.364087877E+02  2.818249474E+02  2.415171366E+02  1.367918607E-01 
        45  3.826762164E-02  1.224563704E-01  7.025293559E-02  9.528195874E+04  2.981970525E+02  3.371150455E+02  2.830092649E+02  2.375967439E+02  1.400429562E-01 
        46  3.856443464E-02  1.228195695E-01  7.317567491E-02  9.606500391E+04  2.958862915E+02  3.376402283E+02  2.838916702E+02  2.349192429E+02  1.457172632E-01 
        47  3.882754171E-02  1.231963568E-01  7.616928387E-02  9.648541794E+04  2.939395930E+02  3.382986231E+02  2.850010604E+02  2.328997163E+02  1.523707302E-01 
        48  3.896508106E-02  1.235573809E-01  7.913505459E-02  9.660629883E+04  2.905382729E+02  3.392375717E+02  2.865968132E+02  2.277835846E+02  1.576491930E-01 
        49  3.903512947E-02  1.239238609E-01  8.213137167E-02  9.657360364E+04  2.823206370E+02  3.410316122E+02  2.896596074E+02  2.139578754E+02  1.655158652E-01 
        50  3.900153017E-02  1.243001337E-01  8.510504302E-02  9.643479755E+04  2.682229198E+02  3.439688815E+02  2.946844844E+02  1.882654792E+02  1.681789258E-01 
        51  3.889299026E-02  1.246700891E-01  8.806950082E-02  9.627929022E+04  2.523929150E+02  3.474101093E+02  3.006144745E+02  1.480073252E+02  1.469946882E-01 
        52  3.870303970E-02  1.250405990E-01  9.105247242E-02  9.637270264E+04  2.429952898E+02  3.502700219E+02  3.055567384E+02  1.099845080E+02  6.664556739E-02 
        53  3.847530202E-02  1.253810613E-01  9.402032493E-02  9.683894839E+04  2.410665852E+02  3.519734942E+02  3.085299171E+02  7.700324361E+01 -2.037671746E-01 
        54  3.809583015E-02  1.257752167E-01  9.695318516E-02  9.870586719E+04  2.407180481E+02  3.531006050E+02  3.104957542E+02  5.114800358E+01 -7.852151692E-01 
        55  3.767199372E-02  1.261489404E-01  9.992435767E-02  1.012254722E+05  2.402255220E+02  3.535830917E+02  3.113363004E+02  4.440184641E+01 -7.980248556E-01 
        56  3.723780727E-02  1.265196365E-01  1.028569506E-01  1.039924739E+05  2.376897857E+02  3.533906282E+02  3.109980808E+02  5.917559673E+01 -2.741614687E-01 
        57  3.672955052E-02  1.269046997E-01  1.057947981E-01  1.058414531E+05  2.381909885E+02  3.519701753E+02  3.085095820E+02  9.272801161E+01  1.214481099E-02 
        58  3.615520807E-02  1.273091289E-01  1.087154776E-01  1.068842603E+05  2.441797662E+02  3.493458033E+02  3.039321194E+02  1.336079216E+02  1.343957866E-01 
        59  3.556812424E-02  1.277144368E-01  1.116309472E-01  1.074570630E+05  2.542410319E+02  3.464110036E+02  2.988431382E+02  1.687902079E+02  1.844282126E-01 
        60  3.495651588E-02  1.281329458E-01  1.145394580E-01  1.077242786E+05  2.631229081E+02  3.442670827E+02  2.951482153E+02  1.892224512E+02  1.963439095E-01 
        61  3.433795015E-02  1.285471243E-01  1.174457346E-01  1.079062933E+05  2.680604804E+02  3.432885628E+02  2.934690943E+02  1.974216902E+02  1.950931447E-01 
        62  3.376061330E-02  1.289460490E-01  1.203607660E-01  1.080576145E+05  2.702726390E+02  3.430582025E+02  2.930748415E+02  1.997787213E+02  1.912753584E-01 
        63  3.331803132E-02  1.293309423E-01  1.232882868E-01  1.080468391E+05  2.715334585E+02  3.430328360E+02  2.930314494E+02  2.004730964E+02  1.878352613E-01 
        64  3.310586596E-02  1.296649637E-01  1.262581306E-01  1.079354104E+05  2.725432076E+02  3.430381689E+02  2.930406146E+02  2.009676520E+02  1.853121704E-01 
        65  3.306639982E-02  1.299493947E-01  1.292495641E-01  1.078131559E+05  2.735007367E+02  3.430408062E+02  2.930450978E+02  2.015751072E+02  1.835059733E-01 
        66  3.322486525E-02  1.302097713E-01  1.322380794E-01  1.076653655E+05  2.744994696E+02  3.429970233E+02  2.929702459E+02  2.024206562E+02  1.824812434E-01 
        67  3.356462385E-02  1.304573038E-01  1.352130229E-01  1.074875381E+05  2.755069345E+02  3.429259073E+02  2.928488328E+02  2.035208191E+02  1.826556077E-01 
        68  3.400410102E-02  1.306751199E-01  1.381765647E-01  1.072583967E+05  2.765727499E+02  3.428295593E+02  2.926843338E+02  2.049013317E+02  1.833742196E-01 
        69  3.451963359E-02  1.308741206E-01  1.411278790E-01  1.069865790E+05  2.777388482E+02  3.427090683E+02  2.924785933E+02  2.064500487E+02  1.841458560E-01 
        70  3.508991352E-02  1.310576265E-01  1.440660380E-01  1.066730168E+05  2.788592253E+02  3.425825329E+02  2.922627060E+02  2.081004932E+02  1.855819174E-01 
        71  3.570211579E-02  1.312503676E-01  1.470000000E-01  1.063205322E+05  2.802045975E+02  3.424103317E+02  2.919696770E+02  2.101791954E+02  1.869356204E-01 
        72 -2.843361623E-02  1.708417341E-01 -4.258217492E-02  8.203048682E+04  1.837341533E+02  3.299775724E+02  2.711513081E+02  3.442680216E+02  1.007701162E+00 
        73 -2.838826984E-02  1.709653765E-01 -3.916427879E-02  8.199788806E+04  1.843026984E+02  3.299433959E+02  2.710951960E+02  3.446792498E+02  1.006503870E+00 
        74 -2.835908450E-02  1.711140563E-01 -3.574649433E-02  8.231166870E+04  1.838551015E+02  3.301471770E+02  2.714302185E+02  3.437454834E+02  1.006357313E+00 
        75 -2.838361088E-02  1.712589164E-01 -3.232950605E-02  8.300856885E+04  1.829180121E+02  3.305315723E+02  2.720627317E+02  3.423324995E+02  1.007040799E+00 
        76 -2.841360827E-02  1.714319125E-01 -2.891476756E-02  8.383850208E+04  1.812426133E+02  3.310309811E+02  2.728853531E+02  3.399208918E+02  1.008557601E+00 
        77 -2.833774301E-02  1.716334782E-01 -2.549995819E-02  8.441212976E+04  1.802456002E+02  3.313201847E+02  2.733623160E+02  3.389269673E+02  1.010270430E+00 
        78 -2.791452343E-02  1.719215161E-01 -2.212016887E-02  8.457199463E+04  1.796391096E+02  3.314177227E+02  2.735233259E+02  3.385935822E+02  1.011834472E+00 
        79 -2.700703325E-02  1.722886754E-01 -1.884820631E-02  8.425140747E+04  1.797278585E+02  3.312319412E+02  2.732168179E+02  3.395988054E+02  1.013312850E+00 
        80 -2.544395246E-02  1.727209334E-01 -1.584518523E-02  8.309657495E+04  1.814529128E+02  3.305749049E+02  2.721342108E+02  3.433647072E+02  1.014030349E+00 
        81 -2.351536464E-02  1.732363399E-01 -1.306823492E-02  8.113272302E+04  1.853127425E+02  3.294287435E+02  2.702507399E+02  3.490404477E+02  1.011120128E+00 
        82 -2.134527601E-02  1.737374909E-01 -1.047435973E-02  7.845427754E+04  1.914123144E+02  3.278611192E+02  2.676851307E+02  3.568032428E+02  1.004969684E+00 
        83 -1.897326710E-02  1.742189522E-01 -8.035177519E-03  7.550731943E+04  1.993577892E+02  3.260763388E+02  2.647787681E+02  3.654309433E+02  9.949465129E-01 
        84 -1.652827274E-02  1.746780172E-01 -5.688541800E-03  7.312950452E+04  2.065305557E+02  3.246222553E+02  2.624224038E+02  3.722502561E+02  9.845333006E-01 
        85 -1.397929867E-02  1.751251779E-01 -3.446989688E-03  7.248968201E+04  2.101518850E+02  3.241900334E+02  2.617241869E+02  3.744154515E+02  9.767924156E-01 
        86 -1.139011487E-02  1.755573757E-01 -1.256774906E-03  7.417255859E+04  2.092409010E+02  3.252176704E+02  2.633879948E+02  3.701985946E+02  9.713076465E-01 
        87 -8.734274343E-03  1.759085237E-01  8.667805443E-04  7.942061316E+04  2.025787414E+02  3.284460516E+02  2.686483285E+02  3.562009928E+02  9.667640645E-01 
        88 -6.073383534E-03  1.762548475E-01  2.984781313E-03  8.878784094E+04  1.909688003E+02  3.336754076E+02  2.772709184E+02  3.298238702E+02  9.617059212E-01 
        89 -3.359730182E-03  1.765819110E-01  5.053045394E-03  9.834340533E+04  1.755108489E+02  3.384348946E+02  2.852315378E+02  3.046651888E+02  9.816245418E-01 
        90 -6.741955509E-04  1.768270807E-01  7.130208361E-03  9.798330513E+04  1.650934244E+02  3.380817622E+02  2.846373439E+02  3.062192337E+02  1.020701118E+00 
        91  2.027043660E-03  1.770783858E-01  9.208570588E-03  7.945909435E+04  1.915428818E+02  3.283849208E+02  2.685455898E+02  3.571857251E+02  1.005656058E+00 
        92  4.731686997E-03  1.772422585E-01  1.127155269E-02  7.213231381E+04  2.139277010E+02  3.240802957E+02  2.615489460E+02  3.761519565E+02  9.672699221E-01 
        93  7.454465044E-03  1.773874983E-01  1.334309669E-02  7.276985657E+04  2.105900637E+02  3.242085637E+02  2.617552080E+02  3.742740425E+02  9.744046181E-01 
        94  1.015989937E-02  1.775222933E-01  1.545596277E-02  7.043852019E+04  2.177929110E+02  3.227561131E+02  2.594187091E+02  3.825132127E+02  9.673223388E-01 
        95  1.284858280E-02  1.775661421E-01  1.756817794E-02  6.705160837E+04  2.288118021E+02  3.206269579E+02  2.560082203E+02  3.928633945E+02  9.526087358E-01 
        96  1.551966693E-02  1.776138061E-01  1.970369132E-02  6.411089227E+04  2.375179086E+02  3.187396295E+02  2.530027401E+02  4.009665589E+02  9.414665783E-01 
        97  1.817410325E-02  1.776258069E-01  2.186017323E-02  6.170203198E+04  2.453534446E+02  3.170880923E+02  2.503869462E+02  4.079651003E+02  9.311977988E-01 
        98  2.080993586E-02  1.775631240E-01  2.403936301E-02  6.007715820E+04  2.523991966E+02  3.158833656E+02  2.484854288E+02  4.128225231E+02  9.188733958E-01 
        99  2.341570779E-02  1.774969016E-01  2.625394818E-02  5.979970776E+04  2.570100255E+02  3.156542978E+02  2.481254482E+02  4.140130472E+02  9.061756711E-01 
       100  2.600295182E-02  1.773818036E-01  2.848806157E-02  6.180324585E+04  2.578506413E+02  3.170859814E+02  2.503988075E+02  4.088529806E+02  8.916882500E-01 
       101  2.856627515E-02  1.771883875E-01  3.074502562E-02  6.742146851E+04  2.526872997E+02  3.210385723E+02  2.567246876E+02  3.928870049E+02  8.745321669E-01 
       102  3.110662233E-02  1.769811535E-01  3.302644514E-02  7.548184766E+04  2.451563396E+02  3.263150368E+02  2.652294254E+02  3.699085007E+02  8.525418937E-01 
       103  3.362247542E-02  1.767159818E-01  3.532849163E-02  8.143050049E+04  2.436242619E+02  3.297795486E+02  2.708433871E+02  3.537655535E+02  8.259823360E-01 
       104  3.610895472E-02  1.763647845E-01  3.765120331E-02  8.203522021E+04  2.499728143E+02  3.298686547E+02  2.709779491E+02  3.532623687E+02  8.035879238E-01 
       105  3.856497337E-02  1.759966372E-01  4.000321012E-02  7.958691098E+04  2.579583406E+02  3.284419211E+02  2.686371632E+02  3.603208183E+02  7.897646511E-01 
       106  4.103059304E-02  1.755360248E-01  4.234569910E-02  7.806406814E+04  2.634978579E+02  3.277670039E+02  2.675308651E+02  3.643253006E+02  7.785774464E-01 
       107  4.340106546E-02  1.750377176E-01  4.474435622E-02  7.956060097E+04  2.660714806E+02  3.286784440E+02  2.690244479E+02  3.608580390E+02  7.633713069E-01 
       108  4.575540032E-02  1.745445103E-01  4.717695363E-02  8.413029456E+04  2.640897906E+02  3.313019404E+02  2.733433795E+02  3.489535670E+02  7.481382536E-01 
       109  4.807037784E-02  1.739953488E-01  4.963532790E-02  9.027796216E+04  2.599938974E+02  3.346180935E+02  2.788419380E+02  3.322137270E+02  7.325706612E-01 
       110  5.034733117E-02  1.734133857E-01  5.212084081E-02  9.526923340E+04  2.579477997E+02  3.372291107E+02  2.832041645E+02  3.184015999E+02  7.163722925E-01 
       111  5.258765486E-02  1.728405975E-01  5.464144749E-02  9.835494531E+04  2.585153084E+02  3.388188515E+02  2.858778744E+02  3.098542747E+02  7.006357573E-01 
       112  5.479076840E-02  1.722430532E-01  5.718902978E-02  1.010413013E+05  2.589342709E+02  3.401270037E+02  2.880896006E+02  3.026217241E+02  6.879713386E-01 
       113  5.694737683E-02  1.716020731E-01  5.976586917E-02  1.041267828E+05  2.585578439E+02  3.415213480E+02  2.904561226E+02  2.939179091E+02  6.764096231E-01 
       114  5.911848447E-02  1.709340834E-01  6.233872565E-02  1.072907848E+05  2.575212334E+02  3.430131381E+02  2.929989053E+02  2.858115493E+02  6.684661671E-01 
       115  6.119351897E-02  1.703313828E-01  6.496775561E-02  1.101196799E+05  2.566910467E+02  3.443304873E+02  2.952536945E+02  2.785056787E+02  6.618360654E-01 
       116  6.319798910E-02  1.696485115E-01  6.765543605E-02  1.129726023E+05  2.550377402E+02  3.456489592E+02  2.975188375E+02  2.711697845E+02  6.586087486E-01 
       117  6.520189851E-02  1.689621155E-01  7.034628384E-02  1.159103833E+05  2.531999483E+02  3.468653803E+02  2.996163092E+02  2.637571259E+02  6.567411665E-01 
       118  6.717992039E-02  1.682884043E-01  7.305807409E-02  1.171806836E+05  2.526003313E+02  3.474084740E+02  3.005550785E+02  2.601169081E+02  6.550223529E-01 
       119  6.910755662E-02  1.675987334E-01  7.579818779E-02  1.187949622E+05  2.511498914E+02  3.480297010E+02  3.016308298E+02  2.554256337E+02  6.559298667E-01 
       120  7.101404689E-02  1.668389198E-01  7.852135391E-02  1.198260917E+05  2.482739043E+02  3.485229542E+02  3.024864874E+02  2.527524519E+02  6.647875598E-01 
