nodenumber     x-coordinate     y-coordinate     z-coordinate         pressure velocity-magnitude      sound-speed      temperature rel-velocity-magnitude relative-velocity-angle 
         1 -2.216901913E-02  1.039879580E-01 -4.300600202E-02  8.755051259E+04  1.539347320E+02  3.330501129E+02  2.762244012E+02  2.357818187E+02  8.594859868E-01 
         2 -2.197401757E-02  1.042260031E-01 -4.002397295E-02  8.746386758E+04  1.544150901E+02  3.330064641E+02  2.761520144E+02  2.363223501E+02  8.589548217E-01 
         3 -2.150271627E-02  1.045375264E-01 -3.708169353E-02  8.737307843E+04  1.550048897E+02  3.329572639E+02  2.760703926E+02  2.369733473E+02  8.583122101E-01 
         4 -2.072290556E-02  1.049359494E-01 -3.421635317E-02  8.727470190E+04  1.556427081E+02  3.329053607E+02  2.759843531E+02  2.376972737E+02  8.577494845E-01 
         5 -1.964621854E-02  1.053757771E-01 -3.145501365E-02  8.714336401E+04  1.563598461E+02  3.328358917E+02  2.758692222E+02  2.384843740E+02  8.570148479E-01 
         6 -1.833909717E-02  1.058829391E-01 -2.880182754E-02  8.697920947E+04  1.571792002E+02  3.327492342E+02  2.757255979E+02  2.393888164E+02  8.561733272E-01 
         7 -1.686396899E-02  1.064019756E-01 -2.624136390E-02  8.682359302E+04  1.579668989E+02  3.326692228E+02  2.755930223E+02  2.403552780E+02  8.557791207E-01 
         8 -1.524276490E-02  1.069101094E-01 -2.376908005E-02  8.663970959E+04  1.588752820E+02  3.325720887E+02  2.754321170E+02  2.414040685E+02  8.550469223E-01 
         9 -1.353040875E-02  1.074492491E-01 -2.136449246E-02  8.639990332E+04  1.600433033E+02  3.324428105E+02  2.752179837E+02  2.426689565E+02  8.536968036E-01 
        10 -1.175719847E-02  1.079385502E-01 -1.899452623E-02  8.619118054E+04  1.614178303E+02  3.323229599E+02  2.750195756E+02  2.439092152E+02  8.511803756E-01 
        11 -9.920451205E-03  1.084473482E-01 -1.667649769E-02  8.607720224E+04  1.626775084E+02  3.322492592E+02  2.748976519E+02  2.449015429E+02  8.484039307E-01 
        12 -8.053093039E-03  1.089314126E-01 -1.437870322E-02  8.615114133E+04  1.636074759E+02  3.322767050E+02  2.749431040E+02  2.449463402E+02  8.440410122E-01 
        13 -6.139911673E-03  1.093816015E-01 -1.211111235E-02  8.663330127E+04  1.630147963E+02  3.325477285E+02  2.753918157E+02  2.434464321E+02  8.425848298E-01 
        14 -4.213714023E-03  1.098625599E-01 -9.853315987E-03  8.747883057E+04  1.606051760E+02  3.330217247E+02  2.761774426E+02  2.406192226E+02  8.465296328E-01 
        15 -2.267252226E-03  1.102821410E-01 -7.616721013E-03  8.853345020E+04  1.564537783E+02  3.335832710E+02  2.771096992E+02  2.370825529E+02  8.579805419E-01 
        16 -3.058463972E-04  1.106716081E-01 -5.380345181E-03  8.942316748E+04  1.498574228E+02  3.340197220E+02  2.778354588E+02  2.340926480E+02  8.852245212E-01 
        17  1.649896870E-03  1.110991589E-01 -3.144821902E-03  8.743235876E+04  1.453436530E+02  3.330621080E+02  2.762465930E+02  2.419432299E+02  9.369721720E-01 
        18  3.605378217E-03  1.114680886E-01 -8.997268064E-04  7.559303198E+04  1.734149194E+02  3.263568130E+02  2.652343769E+02  2.838169713E+02  9.422638472E-01 
        19  5.548952344E-03  1.118349081E-01  1.356589372E-03  6.978919653E+04  2.105162634E+02  3.225708234E+02  2.591179950E+02  3.085960274E+02  8.432150292E-01 
        20  7.472030685E-03  1.121892539E-01  3.633809071E-03  7.284190395E+04  2.130649083E+02  3.245348657E+02  2.622870332E+02  2.981070548E+02  7.859492952E-01 
        21  9.366594022E-03  1.125505666E-01  5.932977735E-03  7.652450610E+04  2.080290430E+02  3.269241307E+02  2.661608441E+02  2.841624625E+02  7.572139287E-01 
        22  1.122147558E-02  1.129077905E-01  8.263617067E-03  7.890739689E+04  2.085823665E+02  3.282789980E+02  2.683689749E+02  2.780833805E+02  7.317774399E-01 
        23  1.303284284E-02  1.132507638E-01  1.062953057E-02  8.045778225E+04  2.116528466E+02  3.291396360E+02  2.697769979E+02  2.738056298E+02  7.005866121E-01 
        24  1.479928419E-02  1.136234762E-01  1.303021626E-02  8.159718858E+04  2.158978751E+02  3.298316183E+02  2.709126195E+02  2.692086526E+02  6.621629633E-01 
        25  1.649617427E-02  1.139938279E-01  1.547769530E-02  8.262388068E+04  2.206771009E+02  3.304103715E+02  2.718642125E+02  2.651740611E+02  6.233098549E-01 
        26  1.811807173E-02  1.143837002E-01  1.797032872E-02  8.336702979E+04  2.261210542E+02  3.307660184E+02  2.724494133E+02  2.628022890E+02  5.872659925E-01 
        27  1.968166241E-02  1.148013513E-01  2.049621310E-02  8.350016101E+04  2.330740845E+02  3.307592080E+02  2.724379737E+02  2.630622356E+02  5.529593136E-01 
        28  2.119101764E-02  1.152299366E-01  2.305322148E-02  8.298573760E+04  2.415351651E+02  3.304302688E+02  2.718962828E+02  2.654305592E+02  5.183936834E-01 
        29  2.266338778E-02  1.156643914E-01  2.563116057E-02  8.236251746E+04  2.502254373E+02  3.300305088E+02  2.712389336E+02  2.684636273E+02  4.850706609E-01 
        30  2.408077791E-02  1.161159634E-01  2.823658064E-02  8.183726233E+04  2.585240903E+02  3.296886396E+02  2.706771736E+02  2.713842595E+02  4.536156962E-01 
        31  2.544088325E-02  1.165921105E-01  3.086849856E-02  8.130102954E+04  2.667088909E+02  3.293386745E+02  2.701030333E+02  2.743389654E+02  4.231918314E-01 
        32  2.674433127E-02  1.170738851E-01  3.352942364E-02  8.073854431E+04  2.746705127E+02  3.290262394E+02  2.695907617E+02  2.771899798E+02  3.937729117E-01 
        33  2.797950643E-02  1.175445507E-01  3.622298897E-02  8.020972253E+04  2.823697009E+02  3.287917967E+02  2.692065257E+02  2.797545482E+02  3.647534434E-01 
        34  2.916313541E-02  1.180056499E-01  3.893937175E-02  7.991587732E+04  2.894469488E+02  3.287056138E+02  2.690654385E+02  2.815722212E+02  3.361840667E-01 
        35  3.031249539E-02  1.184785399E-01  4.167042727E-02  8.005856018E+04  2.951928580E+02  3.288364818E+02  2.692797092E+02  2.821059104E+02  3.096720427E-01 
        36  3.139929926E-02  1.189405785E-01  4.442941843E-02  8.034611450E+04  3.005641165E+02  3.290345132E+02  2.696040270E+02  2.820496814E+02  2.827716896E-01 
        37  3.242013936E-02  1.193808800E-01  4.721660669E-02  8.082836028E+04  3.056937317E+02  3.292990179E+02  2.700378782E+02  2.813026699E+02  2.541684766E-01 
        38  3.340677803E-02  1.198011670E-01  5.002067675E-02  8.199873911E+04  3.086787965E+02  3.299306109E+02  2.710750580E+02  2.782919147E+02  2.278404123E-01 
        39  3.430413654E-02  1.201853153E-01  5.285529857E-02  8.355928857E+04  3.104787683E+02  3.308196392E+02  2.725383883E+02  2.738626642E+02  2.020254573E-01 
        40  3.515433510E-02  1.205874318E-01  5.570324370E-02  8.548549512E+04  3.109675732E+02  3.318974743E+02  2.743177013E+02  2.682015514E+02  1.784180524E-01 
        41  3.592907297E-02  1.209644065E-01  5.857535950E-02  8.771934131E+04  3.099456282E+02  3.331144371E+02  2.763335743E+02  2.614539146E+02  1.588265272E-01 
        42  3.664355424E-02  1.213334730E-01  6.146049591E-02  9.011198181E+04  3.073961978E+02  3.343509283E+02  2.783888288E+02  2.540612836E+02  1.454447052E-01 
        43  3.727845098E-02  1.217084379E-01  6.437276718E-02  9.239732471E+04  3.038773737E+02  3.355179424E+02  2.803350010E+02  2.469004412E+02  1.390004186E-01 
        44  3.781448665E-02  1.220744111E-01  6.730672953E-02  9.429250122E+04  3.001960793E+02  3.365179815E+02  2.820080996E+02  2.408478465E+02  1.385782063E-01 
        45  3.826762164E-02  1.224563704E-01  7.025293559E-02  9.562701392E+04  2.971933129E+02  3.372673514E+02  2.832649932E+02  2.367239351E+02  1.424834693E-01 
        46  3.856443464E-02  1.228195695E-01  7.317567491E-02  9.638603516E+04  2.954210739E+02  3.377382507E+02  2.840565567E+02  2.347766418E+02  1.480019316E-01 
        47  3.882754171E-02  1.231963568E-01  7.616928387E-02  9.673605322E+04  2.935609405E+02  3.384083685E+02  2.851859958E+02  2.326486850E+02  1.537180561E-01 
        48  3.896508106E-02  1.235573809E-01  7.913505459E-02  9.685766602E+04  2.899241829E+02  3.393676834E+02  2.868145294E+02  2.268064537E+02  1.570773758E-01 
        49  3.903512947E-02  1.239238609E-01  8.213137167E-02  9.691029517E+04  2.810633137E+02  3.411891756E+02  2.899248133E+02  2.121058282E+02  1.658533306E-01 
        50  3.900153017E-02  1.243001337E-01  8.510504302E-02  9.686061597E+04  2.647353271E+02  3.444201033E+02  2.954596751E+02  1.837728571E+02  1.786957629E-01 
        51  3.889299026E-02  1.246700891E-01  8.806950082E-02  9.660398328E+04  2.475105202E+02  3.481441333E+02  3.018861690E+02  1.399979842E+02  1.672078776E-01 
        52  3.870303970E-02  1.250405990E-01  9.105247242E-02  9.649284375E+04  2.385693479E+02  3.510342569E+02  3.068868270E+02  9.951357508E+01  7.003727591E-02 
        53  3.847530202E-02  1.253810613E-01  9.402032493E-02  9.667725092E+04  2.358098264E+02  3.523977771E+02  3.092704970E+02  6.580029343E+01 -1.529610941E-01 
        54  3.809583015E-02  1.257752167E-01  9.695318516E-02  9.781914258E+04  2.356434669E+02  3.530752449E+02  3.104499207E+02  4.419446611E+01 -1.048632972E+00 
        55  3.767199372E-02  1.261489404E-01  9.992435767E-02  9.955928613E+04  2.448838925E+02  3.527465153E+02  3.098648453E+02  4.218326449E+01 -1.405269086E+00 
        56  3.723780727E-02  1.265196365E-01  1.028569506E-01  1.019008207E+05  2.478180399E+02  3.519437774E+02  3.084567067E+02  5.616753662E+01 -8.852037694E-01 
        57  3.672955052E-02  1.269046997E-01  1.057947981E-01  1.045631545E+05  2.372799773E+02  3.506360435E+02  3.061729426E+02  9.498603725E+01 -1.951902331E-02 
        58  3.615520807E-02  1.273091289E-01  1.087154776E-01  1.068734653E+05  2.403189306E+02  3.480164309E+02  3.016228180E+02  1.447958260E+02  2.048921911E-01 
        59  3.556812424E-02  1.277144368E-01  1.116309472E-01  1.078279976E+05  2.528786604E+02  3.454667175E+02  2.972141044E+02  1.763471709E+02  2.190532914E-01 
        60  3.495651588E-02  1.281329458E-01  1.145394580E-01  1.079651528E+05  2.621136322E+02  3.439882150E+02  2.946685743E+02  1.889957542E+02  2.014526697E-01 
        61  3.433795015E-02  1.285471243E-01  1.174457346E-01  1.079024634E+05  2.670136747E+02  3.433022389E+02  2.934922495E+02  1.941056206E+02  1.897060273E-01 
        62  3.376061330E-02  1.289460490E-01  1.203607660E-01  1.078605496E+05  2.692993827E+02  3.430792434E+02  2.931108778E+02  1.968528800E+02  1.868254807E-01 
        63  3.331803132E-02  1.293309423E-01  1.232882868E-01  1.078362902E+05  2.707531636E+02  3.430461130E+02  2.930541999E+02  1.982857131E+02  1.848179637E-01 
        64  3.310586596E-02  1.296649637E-01  1.262581306E-01  1.077584805E+05  2.720008936E+02  3.430364578E+02  2.930377204E+02  1.994071019E+02  1.830628744E-01 
        65  3.306639982E-02  1.299493947E-01  1.292495641E-01  1.076533579E+05  2.731282945E+02  3.430090300E+02  2.929908932E+02  2.004478389E+02  1.817601639E-01 
        66  3.322486525E-02  1.302097713E-01  1.322380794E-01  1.075607079E+05  2.742275876E+02  3.429752729E+02  2.929331892E+02  2.016897777E+02  1.815370783E-01 
        67  3.356462385E-02  1.304573038E-01  1.352130229E-01  1.074636272E+05  2.753057541E+02  3.429367660E+02  2.928674431E+02  2.031799004E+02  1.826708286E-01 
        68  3.400410102E-02  1.306751199E-01  1.381765647E-01  1.072699708E+05  2.764508817E+02  3.428456721E+02  2.927118480E+02  2.047693315E+02  1.836520291E-01 
        69  3.451963359E-02  1.308741206E-01  1.411278790E-01  1.069986982E+05  2.776168101E+02  3.427176404E+02  2.924932742E+02  2.063562670E+02  1.845536288E-01 
        70  3.508991352E-02  1.310576265E-01  1.440660380E-01  1.066781675E+05  2.787533295E+02  3.425772262E+02  2.922536452E+02  2.081274724E+02  1.863153165E-01 
        71  3.570211579E-02  1.312503676E-01  1.470000000E-01  1.063196465E+05  2.801835899E+02  3.423991547E+02  2.919500389E+02  2.102917995E+02  1.874646004E-01 
        72 -2.843361623E-02  1.708417341E-01 -4.258217492E-02  8.204479077E+04  1.836018114E+02  3.300000162E+02  2.711882076E+02  3.441257000E+02  1.007923856E+00 
        73 -2.838826984E-02  1.709653765E-01 -3.916427879E-02  8.203478247E+04  1.843400178E+02  3.299470010E+02  2.711011803E+02  3.449839172E+02  1.006996266E+00 
        74 -2.835908450E-02  1.711140563E-01 -3.574649433E-02  8.237444928E+04  1.838357791E+02  3.301570401E+02  2.714464104E+02  3.437742777E+02  1.006512173E+00 
        75 -2.838361088E-02  1.712589164E-01 -3.232950605E-02  8.299966821E+04  1.827947812E+02  3.305348520E+02  2.720682116E+02  3.421058884E+02  1.007141296E+00 
        76 -2.841360827E-02  1.714319125E-01 -2.891476756E-02  8.367272437E+04  1.818169155E+02  3.309078841E+02  2.726826353E+02  3.408991895E+02  1.008357810E+00 
        77 -2.833774301E-02  1.716334782E-01 -2.549995819E-02  8.417674854E+04  1.808308768E+02  3.311808338E+02  2.731326454E+02  3.394143451E+02  1.009231780E+00 
        78 -2.791452343E-02  1.719215161E-01 -2.212016887E-02  8.446075244E+04  1.800967350E+02  3.313354130E+02  2.733876753E+02  3.389284763E+02  1.010970533E+00 
        79 -2.700703325E-02  1.722886754E-01 -1.884820631E-02  8.429497925E+04  1.795521774E+02  3.312556953E+02  2.732562008E+02  3.396209631E+02  1.014089838E+00 
        80 -2.544395246E-02  1.727209334E-01 -1.584518523E-02  8.322108051E+04  1.810258006E+02  3.306450400E+02  2.722499638E+02  3.427879159E+02  1.014662131E+00 
        81 -2.351536464E-02  1.732363399E-01 -1.306823492E-02  8.133307663E+04  1.845905889E+02  3.295731945E+02  2.704879155E+02  3.482665586E+02  1.012452006E+00 
        82 -2.134527601E-02  1.737374909E-01 -1.047435973E-02  7.868557423E+04  1.908404019E+02  3.279989179E+02  2.679106760E+02  3.562173671E+02  1.006164062E+00 
        83 -1.897326710E-02  1.742189522E-01 -8.035177519E-03  7.541857648E+04  1.998292069E+02  3.259964967E+02  2.646504329E+02  3.656518105E+02  9.942691387E-01 
        84 -1.652827274E-02  1.746780172E-01 -5.688541800E-03  7.290736230E+04  2.074762123E+02  3.244402032E+02  2.621286271E+02  3.732157397E+02  9.837526921E-01 
        85 -1.397929867E-02  1.751251779E-01 -3.446989688E-03  7.242976746E+04  2.106294627E+02  3.241496196E+02  2.616586752E+02  3.745513868E+02  9.754831139E-01 
        86 -1.139011487E-02  1.755573757E-01 -1.256774906E-03  7.405067004E+04  2.090974753E+02  3.252214899E+02  2.633932276E+02  3.701280322E+02  9.712588862E-01 
        87 -8.734274343E-03  1.759085237E-01  8.667805443E-04  7.934262091E+04  2.036246521E+02  3.282827048E+02  2.683785584E+02  3.556954725E+02  9.619052708E-01 
        88 -6.073383534E-03  1.762548475E-01  2.984781313E-03  8.861449048E+04  1.904181246E+02  3.335357776E+02  2.770360472E+02  3.323318350E+02  9.671309837E-01 
        89 -3.359730182E-03  1.765819110E-01  5.053045394E-03  9.871589740E+04  1.743027503E+02  3.386617622E+02  2.856157775E+02  3.029238672E+02  9.834875837E-01 
        90 -6.741955509E-04  1.768270807E-01  7.130208361E-03  9.743386359E+04  1.664111017E+02  3.379391401E+02  2.843968650E+02  3.078407847E+02  1.017257134E+00 
        91  2.027043660E-03  1.770783858E-01  9.208570588E-03  7.914961887E+04  1.918475401E+02  3.281809093E+02  2.682148908E+02  3.589102142E+02  1.008245972E+00 
        92  4.731686997E-03  1.772422585E-01  1.127155269E-02  7.279231804E+04  2.117423714E+02  3.243931135E+02  2.620555803E+02  3.734408188E+02  9.694522895E-01 
        93  7.454465044E-03  1.773874983E-01  1.334309669E-02  7.328712691E+04  2.102089699E+02  3.246548787E+02  2.624762810E+02  3.751914573E+02  9.777417104E-01 
        94  1.015989937E-02  1.775222933E-01  1.545596277E-02  7.069846379E+04  2.180596368E+02  3.229778154E+02  2.597759977E+02  3.832905680E+02  9.681166872E-01 
        95  1.284858280E-02  1.775661421E-01  1.756817794E-02  6.717536334E+04  2.277246507E+02  3.207734401E+02  2.562438688E+02  3.914046843E+02  9.534107549E-01 
        96  1.551966693E-02  1.776138061E-01  1.970369132E-02  6.420498511E+04  2.370207520E+02  3.186984789E+02  2.529391582E+02  4.001327515E+02  9.415971451E-01 
        97  1.817410325E-02  1.776258069E-01  2.186017323E-02  6.182951294E+04  2.455519087E+02  3.169752722E+02  2.502090306E+02  4.077068090E+02  9.300970118E-01 
        98  2.080993586E-02  1.775631240E-01  2.403936301E-02  6.017471350E+04  2.528732543E+02  3.158144374E+02  2.483770919E+02  4.131711874E+02  9.181525521E-01 
        99  2.341570779E-02  1.774969016E-01  2.625394818E-02  5.976434338E+04  2.575408664E+02  3.156050463E+02  2.480481725E+02  4.143582668E+02  9.053235762E-01 
       100  2.600295182E-02  1.773818036E-01  2.848806157E-02  6.149770605E+04  2.590392313E+02  3.168775730E+02  2.500665112E+02  4.099897366E+02  8.902868703E-01 
       101  2.856627515E-02  1.771883875E-01  3.074502562E-02  6.687618994E+04  2.546121569E+02  3.206650677E+02  2.561269035E+02  3.949692812E+02  8.727215901E-01 
       102  3.110662233E-02  1.769811535E-01  3.302644514E-02  7.506325903E+04  2.464473906E+02  3.261343298E+02  2.649404793E+02  3.713158293E+02  8.511636835E-01 
       103  3.362247542E-02  1.767159818E-01  3.532849163E-02  8.158112170E+04  2.433344545E+02  3.300457792E+02  2.712843218E+02  3.534693823E+02  8.264865112E-01 
       104  3.610895472E-02  1.763647845E-01  3.765120331E-02  8.280151953E+04  2.478320377E+02  3.306015615E+02  2.721829314E+02  3.505682864E+02  8.060065126E-01 
       105  3.856497337E-02  1.759966372E-01  4.000321012E-02  8.031293274E+04  2.565657125E+02  3.291147939E+02  2.697404398E+02  3.587506914E+02  7.916919366E-01 
       106  4.103059304E-02  1.755360248E-01  4.234569910E-02  7.825929637E+04  2.640051408E+02  3.279749718E+02  2.678711791E+02  3.640550953E+02  7.763553704E-01 
       107  4.340106546E-02  1.750377176E-01  4.474435622E-02  7.915979620E+04  2.664151047E+02  3.286881535E+02  2.690400571E+02  3.609915050E+02  7.624302742E-01 
       108  4.575540032E-02  1.745445103E-01  4.717695363E-02  8.328638953E+04  2.649344823E+02  3.310584812E+02  2.729402516E+02  3.498367395E+02  7.469200166E-01 
       109  4.807037784E-02  1.739953488E-01  4.963532790E-02  8.938834912E+04  2.609814854E+02  3.342205534E+02  2.781796837E+02  3.333746996E+02  7.312217783E-01 
       110  5.034733117E-02  1.734133857E-01  5.212084081E-02  9.490805859E+04  2.581515179E+02  3.369169235E+02  2.826807728E+02  3.185617371E+02  7.160727605E-01 
       111  5.258765486E-02  1.728405975E-01  5.464144749E-02  9.848228564E+04  2.579281540E+02  3.386612644E+02  2.856123505E+02  3.087347851E+02  7.010340653E-01 
       112  5.479076840E-02  1.722430532E-01  5.718902978E-02  1.012682261E+05  2.582634840E+02  3.400581570E+02  2.879732819E+02  3.017101765E+02  6.890578177E-01 
       113  5.694737683E-02  1.716020731E-01  5.976586917E-02  1.044610504E+05  2.578501117E+02  3.416050670E+02  2.905989494E+02  2.941630700E+02  6.794636883E-01 
       114  5.911848447E-02  1.709340834E-01  6.233872565E-02  1.079781489E+05  2.566725195E+02  3.432900459E+02  2.934724281E+02  2.857057062E+02  6.714911916E-01 
       115  6.119351897E-02  1.703313828E-01  6.496775561E-02  1.109692017E+05  2.556294627E+02  3.446807051E+02  2.958545790E+02  2.774339867E+02  6.644419096E-01 
       116  6.319798910E-02  1.696485115E-01  6.765543605E-02  1.133946638E+05  2.544151568E+02  3.457909646E+02  2.977631965E+02  2.701427021E+02  6.596747646E-01 
       117  6.520189851E-02  1.689621155E-01  7.034628384E-02  1.153911313E+05  2.536660843E+02  3.465378513E+02  2.990506887E+02  2.646432257E+02  6.560059693E-01 
       118  6.717992039E-02  1.682884043E-01  7.305807409E-02  1.172091714E+05  2.515402613E+02  3.473600979E+02  3.004713879E+02  2.600050802E+02  6.591845211E-01 
       119  6.910755662E-02  1.675987334E-01  7.579818779E-02  1.187554758E+05  2.507613754E+02  3.478859544E+02  3.013817060E+02  2.567306714E+02  6.589803854E-01 
       120  7.101404689E-02  1.668389198E-01  7.852135391E-02  1.198188088E+05  2.476494911E+02  3.484751027E+02  3.024034114E+02  2.540253906E+02  6.687081917E-01 
