nodenumber     x-coordinate     y-coordinate     z-coordinate         pressure velocity-magnitude      sound-speed      temperature rel-velocity-magnitude relative-velocity-angle 
         1 -2.216901913E-02  1.039879580E-01 -4.300600202E-02  8.753383298E+04  1.538398027E+02  3.330562986E+02  2.762347281E+02  2.355992286E+02  8.594457973E-01 
         2 -2.197401757E-02  1.042260031E-01 -4.002397295E-02  8.746396017E+04  1.545502514E+02  3.329907160E+02  2.761259822E+02  2.363661041E+02  8.584119668E-01 
         3 -2.150271627E-02  1.045375264E-01 -3.708169353E-02  8.734219635E+04  1.550747895E+02  3.329394016E+02  2.760409145E+02  2.370847851E+02  8.583604209E-01 
         4 -2.072290556E-02  1.049359494E-01 -3.421635317E-02  8.724103735E+04  1.554647646E+02  3.329127536E+02  2.759967089E+02  2.377015994E+02  8.588498626E-01 
         5 -1.964621854E-02  1.053757771E-01 -3.145501365E-02  8.708783911E+04  1.563371687E+02  3.328170176E+02  2.758379726E+02  2.382471557E+02  8.564659711E-01 
         6 -1.833909717E-02  1.058829391E-01 -2.880182754E-02  8.691884131E+04  1.571930032E+02  3.327193756E+02  2.756761470E+02  2.395002446E+02  8.566141706E-01 
         7 -1.686396899E-02  1.064019756E-01 -2.624136390E-02  8.678309521E+04  1.582314949E+02  3.326221037E+02  2.755149698E+02  2.405896621E+02  8.551437482E-01 
         8 -1.524276490E-02  1.069101094E-01 -2.376908005E-02  8.660367529E+04  1.591528165E+02  3.325311370E+02  2.753643155E+02  2.415477815E+02  8.540903702E-01 
         9 -1.353040875E-02  1.074492491E-01 -2.136449246E-02  8.635227051E+04  1.602270460E+02  3.324027281E+02  2.751516955E+02  2.426779935E+02  8.528249059E-01 
        10 -1.175719847E-02  1.079385502E-01 -1.899452623E-02  8.615458716E+04  1.613088404E+02  3.323188250E+02  2.750128169E+02  2.436956270E+02  8.509590086E-01 
        11 -9.920451205E-03  1.084473482E-01 -1.667649769E-02  8.608655182E+04  1.624558564E+02  3.322745531E+02  2.749394805E+02  2.446001480E+02  8.485395876E-01 
        12 -8.053093039E-03  1.089314126E-01 -1.437870322E-02  8.627543442E+04  1.628382251E+02  3.323983933E+02  2.751444356E+02  2.445703297E+02  8.469923185E-01 
        13 -6.139911673E-03  1.093816015E-01 -1.211111235E-02  8.679449780E+04  1.623399425E+02  3.326483479E+02  2.755584946E+02  2.429446445E+02  8.444678988E-01 
        14 -4.213714023E-03  1.098625599E-01 -9.853315987E-03  8.764532373E+04  1.606642046E+02  3.330587749E+02  2.762390862E+02  2.405881643E+02  8.462395333E-01 
        15 -2.267252226E-03  1.102821410E-01 -7.616721013E-03  8.857562061E+04  1.562443972E+02  3.336121902E+02  2.771578140E+02  2.372686090E+02  8.599596992E-01 
        16 -3.058463972E-04  1.106716081E-01 -5.380345181E-03  8.951492578E+04  1.493560495E+02  3.340870600E+02  2.779475965E+02  2.342230568E+02  8.885819037E-01 
        17  1.649896870E-03  1.110991589E-01 -3.144821902E-03  8.727562671E+04  1.455477488E+02  3.329971318E+02  2.761386380E+02  2.417337639E+02  9.353791205E-01 
        18  3.605378217E-03  1.114680886E-01 -8.997268064E-04  7.559868945E+04  1.763889008E+02  3.261483712E+02  2.648966012E+02  2.861417141E+02  9.378504734E-01 
        19  5.548952344E-03  1.118349081E-01  1.356589372E-03  6.999155341E+04  2.083881900E+02  3.229105356E+02  2.596633532E+02  3.072384207E+02  8.489420060E-01 
        20  7.472030685E-03  1.121892539E-01  3.633809071E-03  7.301819342E+04  2.103424399E+02  3.248883419E+02  2.628606638E+02  2.935931392E+02  7.823178710E-01 
        21  9.366594022E-03  1.125505666E-01  5.932977735E-03  7.665564594E+04  2.048354118E+02  3.274161534E+02  2.669631574E+02  2.801967950E+02  7.580344481E-01 
        22  1.122147558E-02  1.129077905E-01  8.263617067E-03  7.895610970E+04  2.057484385E+02  3.287152330E+02  2.690838127E+02  2.738348224E+02  7.302193443E-01 
        23  1.303284284E-02  1.132507638E-01  1.062953057E-02  8.047908924E+04  2.093015217E+02  3.294815248E+02  2.703387939E+02  2.682642308E+02  6.929253764E-01 
        24  1.479928419E-02  1.136234762E-01  1.303021626E-02  8.167457027E+04  2.139759201E+02  3.300622501E+02  2.712927092E+02  2.651738687E+02  6.581844043E-01 
        25  1.649617427E-02  1.139938279E-01  1.547769530E-02  8.275563470E+04  2.189196241E+02  3.305861361E+02  2.721542137E+02  2.629460464E+02  6.250930475E-01 
        26  1.811807173E-02  1.143837002E-01  1.797032872E-02  8.350139771E+04  2.247612214E+02  3.309090724E+02  2.726854959E+02  2.618634095E+02  5.916301999E-01 
        27  1.968166241E-02  1.148013513E-01  2.049621310E-02  8.360045392E+04  2.320706415E+02  3.309056358E+02  2.726797576E+02  2.626230793E+02  5.569104669E-01 
        28  2.119101764E-02  1.152299366E-01  2.305322148E-02  8.307816365E+04  2.405433883E+02  3.305958871E+02  2.721696676E+02  2.647780616E+02  5.214633306E-01 
        29  2.266338778E-02  1.156643914E-01  2.563116057E-02  8.245388916E+04  2.491885203E+02  3.302018502E+02  2.715212935E+02  2.675253491E+02  4.875906408E-01 
        30  2.408077791E-02  1.161159634E-01  2.823658064E-02  8.189787061E+04  2.577422252E+02  3.298138859E+02  2.708836031E+02  2.710096943E+02  4.566704347E-01 
        31  2.544088325E-02  1.165921105E-01  3.086849856E-02  8.131671497E+04  2.654839506E+02  3.295418639E+02  2.704368248E+02  2.736745238E+02  4.272297630E-01 
        32  2.674433127E-02  1.170738851E-01  3.352942364E-02  8.071560974E+04  2.729632370E+02  3.293156958E+02  2.700656400E+02  2.757796562E+02  3.974006926E-01 
        33  2.797950643E-02  1.175445507E-01  3.622298897E-02  8.015595801E+04  2.812633815E+02  3.289683119E+02  2.694964398E+02  2.785045013E+02  3.658676235E-01 
        34  2.916313541E-02  1.180056499E-01  3.893937175E-02  7.982500891E+04  2.898311371E+02  3.286081771E+02  2.689069436E+02  2.816055689E+02  3.344585866E-01 
        35  3.031249539E-02  1.184785399E-01  4.167042727E-02  7.993684406E+04  2.957016054E+02  3.287443645E+02  2.691296934E+02  2.822714292E+02  3.077089222E-01 
        36  3.139929926E-02  1.189405785E-01  4.442941843E-02  8.021822891E+04  3.006451914E+02  3.290788080E+02  2.696769896E+02  2.819395919E+02  2.818829370E-01 
        37  3.242013936E-02  1.193808800E-01  4.721660669E-02  8.075467413E+04  3.060251705E+02  3.294051998E+02  2.702125610E+02  2.813014659E+02  2.522969317E-01 
        38  3.340677803E-02  1.198011670E-01  5.002067675E-02  8.208057031E+04  3.089778286E+02  3.302123455E+02  2.715393542E+02  2.780067691E+02  2.250126804E-01 
        39  3.430413654E-02  1.201853153E-01  5.285529857E-02  8.385516016E+04  3.104724483E+02  3.312430782E+02  2.732372227E+02  2.731868896E+02  1.992678083E-01 
        40  3.515433510E-02  1.205874318E-01  5.570324370E-02  8.596811084E+04  3.107711582E+02  3.323496761E+02  2.750659962E+02  2.673958225E+02  1.761553902E-01 
        41  3.592907297E-02  1.209644065E-01  5.857535950E-02  8.834063647E+04  3.092975969E+02  3.336000376E+02  2.771400676E+02  2.606164465E+02  1.590009136E-01 
        42  3.664355424E-02  1.213334730E-01  6.146049591E-02  9.081231152E+04  3.061638370E+02  3.348651843E+02  2.792458601E+02  2.529679208E+02  1.479774637E-01 
        43  3.727845098E-02  1.217084379E-01  6.437276718E-02  9.308040088E+04  3.023069820E+02  3.359384155E+02  2.810378647E+02  2.456757135E+02  1.431837287E-01 
        44  3.781448665E-02  1.220744111E-01  6.730672953E-02  9.482570142E+04  2.985084524E+02  3.367690926E+02  2.824285965E+02  2.397834759E+02  1.443655356E-01 
        45  3.826762164E-02  1.224563704E-01  7.025293559E-02  9.592352045E+04  2.957385814E+02  3.372796977E+02  2.832851784E+02  2.359392861E+02  1.482617803E-01 
        46  3.856443464E-02  1.228195695E-01  7.317567491E-02  9.643880469E+04  2.937383881E+02  3.375962830E+02  2.838175125E+02  2.339186401E+02  1.550284550E-01 
        47  3.882754171E-02  1.231963568E-01  7.616928387E-02  9.661693112E+04  2.916813490E+02  3.381448699E+02  2.847424600E+02  2.318567923E+02  1.624833569E-01 
        48  3.896508106E-02  1.235573809E-01  7.913505459E-02  9.668603711E+04  2.870450058E+02  3.393286667E+02  2.867553673E+02  2.242148514E+02  1.670778021E-01 
        49  3.903512947E-02  1.239238609E-01  8.213137167E-02  9.663208875E+04  2.753021927E+02  3.418013303E+02  2.909776678E+02  2.041584865E+02  1.808998541E-01 
        50  3.900153017E-02  1.243001337E-01  8.510504302E-02  9.648049939E+04  2.579738252E+02  3.453910722E+02  2.971298830E+02  1.696908197E+02  1.811022173E-01 
        51  3.889299026E-02  1.246700891E-01  8.806950082E-02  9.629152448E+04  2.398109853E+02  3.493646967E+02  3.039939005E+02  1.214203770E+02  1.710434479E-01 
        52  3.870303970E-02  1.250405990E-01  9.105247242E-02  9.614454810E+04  2.321562190E+02  3.520867796E+02  3.087184210E+02  7.895151162E+01  5.063706863E-02 
        53  3.847530202E-02  1.253810613E-01  9.402032493E-02  9.673184540E+04  2.334948826E+02  3.529217644E+02  3.101792583E+02  4.634794629E+01 -3.936146708E-01 
        54  3.809583015E-02  1.257752167E-01  9.695318516E-02  9.675042773E+04  2.302196732E+02  3.529975624E+02  3.103067207E+02  4.072122955E+01 -9.426353276E-01 
        55  3.767199372E-02  1.261489404E-01  9.992435767E-02  9.793161328E+04  2.453035307E+02  3.524460611E+02  3.093364658E+02  4.816395831E+01 -1.629993666E+00 
        56  3.723780727E-02  1.265196365E-01  1.028569506E-01  9.999922055E+04  2.546117660E+02  3.519852014E+02  3.085285335E+02  6.519089618E+01 -1.174394008E+00 
        57  3.672955052E-02  1.269046997E-01  1.057947981E-01  1.013490924E+05  2.461818457E+02  3.504649172E+02  3.058689213E+02  1.095234044E+02 -9.560660738E-02 
        58  3.615520807E-02  1.273091289E-01  1.087154776E-01  1.029929121E+05  2.380809560E+02  3.478863592E+02  3.013875971E+02  1.508572612E+02  2.483072896E-01 
        59  3.556812424E-02  1.277144368E-01  1.116309472E-01  1.051500450E+05  2.440096295E+02  3.449588878E+02  2.963366461E+02  1.800488918E+02  2.927861726E-01 
        60  3.495651588E-02  1.281329458E-01  1.145394580E-01  1.069658845E+05  2.510874400E+02  3.434888268E+02  2.938143516E+02  1.898565016E+02  2.758041280E-01 
        61  3.433795015E-02  1.285471243E-01  1.174457346E-01  1.079585087E+05  2.561632369E+02  3.432792039E+02  2.934534597E+02  1.913137138E+02  2.487287358E-01 
        62  3.376061330E-02  1.289460490E-01  1.203607660E-01  1.082531510E+05  2.615704632E+02  3.435744133E+02  2.939580901E+02  1.927235045E+02  2.208408103E-01 
        63  3.331803132E-02  1.293309423E-01  1.232882868E-01  1.081814598E+05  2.670497824E+02  3.436015731E+02  2.940045717E+02  1.959155210E+02  1.997132433E-01 
        64  3.310586596E-02  1.296649637E-01  1.262581306E-01  1.080676630E+05  2.701042562E+02  3.434300201E+02  2.937110615E+02  1.982093900E+02  1.909107253E-01 
        65  3.306639982E-02  1.299493947E-01  1.292495641E-01  1.079521570E+05  2.725916376E+02  3.429505522E+02  2.928915365E+02  1.999034724E+02  1.834713596E-01 
        66  3.322486525E-02  1.302097713E-01  1.322380794E-01  1.077526110E+05  2.726096762E+02  3.428264964E+02  2.926796018E+02  2.018656006E+02  1.921664147E-01 
        67  3.356462385E-02  1.304573038E-01  1.352130229E-01  1.075223373E+05  2.735964581E+02  3.426576077E+02  2.923911784E+02  2.026926579E+02  1.913647605E-01 
        68  3.400410102E-02  1.306751199E-01  1.381765647E-01  1.072229933E+05  2.744280105E+02  3.426049438E+02  2.923014019E+02  2.030859189E+02  1.899701466E-01 
        69  3.451963359E-02  1.308741206E-01  1.411278790E-01  1.069114739E+05  2.755878236E+02  3.425479240E+02  2.922040195E+02  2.039974692E+02  1.885393315E-01 
        70  3.508991352E-02  1.310576265E-01  1.440660380E-01  1.066190339E+05  2.770177693E+02  3.424681830E+02  2.920678833E+02  2.059322877E+02  1.890950613E-01 
        71  3.570211579E-02  1.312503676E-01  1.470000000E-01  1.063038076E+05  2.786499023E+02  3.423575478E+02  2.918764687E+02  2.086430225E+02  1.909042485E-01 
        72 -2.843361623E-02  1.708417341E-01 -4.258217492E-02  8.213734546E+04  1.835324302E+02  3.300348206E+02  2.712455912E+02  3.441113482E+02  1.008227162E+00 
        73 -2.838826984E-02  1.709653765E-01 -3.916427879E-02  8.216587140E+04  1.835101445E+02  3.300855107E+02  2.713290257E+02  3.443669767E+02  1.008859415E+00 
        74 -2.835908450E-02  1.711140563E-01 -3.574649433E-02  8.235633362E+04  1.833913597E+02  3.301804614E+02  2.714854231E+02  3.426841335E+02  1.006251090E+00 
        75 -2.838361088E-02  1.712589164E-01 -3.232950605E-02  8.270760522E+04  1.841077380E+02  3.302630692E+02  2.716212673E+02  3.439558306E+02  1.006506976E+00 
        76 -2.841360827E-02  1.714319125E-01 -2.891476756E-02  8.326213989E+04  1.826053109E+02  3.306811771E+02  2.723092690E+02  3.411559134E+02  1.006535357E+00 
        77 -2.833774301E-02  1.716334782E-01 -2.549995819E-02  8.383105231E+04  1.811637260E+02  3.310363191E+02  2.728947780E+02  3.391299300E+02  1.007950767E+00 
        78 -2.791452343E-02  1.719215161E-01 -2.212016887E-02  8.415757959E+04  1.813529081E+02  3.311056328E+02  2.730088854E+02  3.405527802E+02  1.009896159E+00 
        79 -2.700703325E-02  1.722886754E-01 -1.884820631E-02  8.412227246E+04  1.810514736E+02  3.310324183E+02  2.728880930E+02  3.402953186E+02  1.010389466E+00 
        80 -2.544395246E-02  1.727209334E-01 -1.584518523E-02  8.323883722E+04  1.816258355E+02  3.305910347E+02  2.721610975E+02  3.434578037E+02  1.014072413E+00 
        81 -2.351536464E-02  1.732363399E-01 -1.306823492E-02  8.139615096E+04  1.842574023E+02  3.296609268E+02  2.706323025E+02  3.481710233E+02  1.013530906E+00 
        82 -2.134527601E-02  1.737374909E-01 -1.047435973E-02  7.874166559E+04  1.918440605E+02  3.279296198E+02  2.677991030E+02  3.564436522E+02  1.003667253E+00 
        83 -1.897326710E-02  1.742189522E-01 -8.035177519E-03  7.585893445E+04  1.978700411E+02  3.263972708E+02  2.653022069E+02  3.629464437E+02  9.956680029E-01 
        84 -1.652827274E-02  1.746780172E-01 -5.688541800E-03  7.382636682E+04  2.051386335E+02  3.249717760E+02  2.629884553E+02  3.696718645E+02  9.844715307E-01 
        85 -1.397929867E-02  1.751251779E-01 -3.446989688E-03  7.290449219E+04  2.075913310E+02  3.245834160E+02  2.623599877E+02  3.715536580E+02  9.799241535E-01 
        86 -1.139011487E-02  1.755573757E-01 -1.256774906E-03  7.364675891E+04  2.105406146E+02  3.248607430E+02  2.628109083E+02  3.714523344E+02  9.697268028E-01 
        87 -8.734274343E-03  1.759085237E-01  8.667805443E-04  7.816454590E+04  2.048414214E+02  3.276994395E+02  2.674307022E+02  3.583063602E+02  9.635905419E-01 
        88 -6.073383534E-03  1.762548475E-01  2.984781313E-03  8.808854437E+04  1.914024708E+02  3.332314003E+02  2.765349265E+02  3.325542855E+02  9.653391223E-01 
        89 -3.359730182E-03  1.765819110E-01  5.053045394E-03  9.792435889E+04  1.745629667E+02  3.383892343E+02  2.851570245E+02  3.061826773E+02  9.872640036E-01 
        90 -6.741955509E-04  1.768270807E-01  7.130208361E-03  9.649375571E+04  1.711168179E+02  3.372348022E+02  2.832118182E+02  3.098504395E+02  1.003317901E+00 
        91  2.027043660E-03  1.770783858E-01  9.208570588E-03  7.917213728E+04  1.934519906E+02  3.281878736E+02  2.682247434E+02  3.596229162E+02  1.004597712E+00 
        92  4.731686997E-03  1.772422585E-01  1.127155269E-02  7.418375197E+04  2.107086363E+02  3.251736381E+02  2.633163770E+02  3.733929058E+02  9.729830462E-01 
        93  7.454465044E-03  1.773874983E-01  1.334309669E-02  7.396230455E+04  2.111305463E+02  3.247434280E+02  2.626213211E+02  3.746939134E+02  9.741850470E-01 
        94  1.015989937E-02  1.775222933E-01  1.545596277E-02  7.087740211E+04  2.188752287E+02  3.228753323E+02  2.596145288E+02  3.814980920E+02  9.627277263E-01 
        95  1.284858280E-02  1.775661421E-01  1.756817794E-02  6.726863956E+04  2.272741390E+02  3.207926056E+02  2.562734860E+02  3.907538569E+02  9.541901187E-01 
        96  1.551966693E-02  1.776138061E-01  1.970369132E-02  6.423320404E+04  2.357650928E+02  3.188090985E+02  2.531208150E+02  4.002386594E+02  9.466577489E-01 
        97  1.817410325E-02  1.776258069E-01  2.186017323E-02  6.169092285E+04  2.458791120E+02  3.168431945E+02  2.500063009E+02  4.098316526E+02  9.345078291E-01 
        98  2.080993586E-02  1.775631240E-01  2.403936301E-02  5.985348853E+04  2.527073617E+02  3.157399850E+02  2.482634115E+02  4.133222933E+02  9.196886271E-01 
        99  2.341570779E-02  1.774969016E-01  2.625394818E-02  5.919857166E+04  2.575845423E+02  3.153995523E+02  2.477283864E+02  4.136402311E+02  9.042643271E-01 
       100  2.600295182E-02  1.773818036E-01  2.848806157E-02  6.090948389E+04  2.592824478E+02  3.165816545E+02  2.496060162E+02  4.099169235E+02  8.900917023E-01 
       101  2.856627515E-02  1.771883875E-01  3.074502562E-02  6.650763501E+04  2.545890951E+02  3.204310837E+02  2.557646704E+02  3.945685101E+02  8.735456727E-01 
       102  3.110662233E-02  1.769811535E-01  3.302644514E-02  7.492005811E+04  2.461785173E+02  3.259881287E+02  2.647097769E+02  3.705986881E+02  8.522204421E-01 
       103  3.362247542E-02  1.767159818E-01  3.532849163E-02  8.166869250E+04  2.426874132E+02  3.300185328E+02  2.712395415E+02  3.526399784E+02  8.281773869E-01 
       104  3.610895472E-02  1.763647845E-01  3.765120331E-02  8.300049194E+04  2.474554887E+02  3.305988798E+02  2.721807718E+02  3.495611615E+02  8.064809665E-01 
       105  3.856497337E-02  1.759966372E-01  4.000321012E-02  8.047357928E+04  2.561629993E+02  3.292147583E+02  2.699061158E+02  3.582944926E+02  7.926929835E-01 
       106  4.103059304E-02  1.755360248E-01  4.234569910E-02  7.811030411E+04  2.630452583E+02  3.281075723E+02  2.680887602E+02  3.628977961E+02  7.776548482E-01 
       107  4.340106546E-02  1.750377176E-01  4.474435622E-02  7.840275731E+04  2.685455906E+02  3.281057869E+02  2.680866044E+02  3.630707501E+02  7.595208515E-01 
       108  4.575540032E-02  1.745445103E-01  4.717695363E-02  8.191568542E+04  2.674203625E+02  3.301753201E+02  2.714873927E+02  3.536345124E+02  7.458285233E-01 
       109  4.807037784E-02  1.739953488E-01  4.963532790E-02  8.832984790E+04  2.622597132E+02  3.337284985E+02  2.773665123E+02  3.355683308E+02  7.310839090E-01 
       110  5.034733117E-02  1.734133857E-01  5.212084081E-02  9.519084912E+04  2.577647953E+02  3.372382889E+02  2.832256718E+02  3.179480629E+02  7.168687992E-01 
       111  5.258765486E-02  1.728405975E-01  5.464144749E-02  9.962741846E+04  2.566162720E+02  3.395706367E+02  2.871494102E+02  3.051406822E+02  7.004283182E-01 
       112  5.479076840E-02  1.722430532E-01  5.718902978E-02  1.023469067E+05  2.578005772E+02  3.409523001E+02  2.894893866E+02  2.975680952E+02  6.847675480E-01 
       113  5.694737683E-02  1.716020731E-01  5.976586917E-02  1.052463038E+05  2.577018631E+02  3.422701392E+02  2.917315137E+02  2.913384969E+02  6.760171382E-01 
       114  5.911848447E-02  1.709340834E-01  6.233872565E-02  1.086061091E+05  2.566295053E+02  3.436451136E+02  2.940795771E+02  2.845131535E+02  6.700510324E-01 
       115  6.119351897E-02  1.703313828E-01  6.496775561E-02  1.114862859E+05  2.559079161E+02  3.448155861E+02  2.960867934E+02  2.770482883E+02  6.629743502E-01 
       116  6.319798910E-02  1.696485115E-01  6.765543605E-02  1.137141382E+05  2.547949524E+02  3.458502412E+02  2.978659863E+02  2.694765882E+02  6.576083796E-01 
       117  6.520189851E-02  1.689621155E-01  7.034628384E-02  1.158378384E+05  2.522933025E+02  3.469312038E+02  2.997306309E+02  2.629114571E+02  6.594413612E-01 
       118  6.717992039E-02  1.682884043E-01  7.305807409E-02  1.174980366E+05  2.509079409E+02  3.475842657E+02  3.008594322E+02  2.590162544E+02  6.606983729E-01 
       119  6.910755662E-02  1.675987334E-01  7.579818779E-02  1.187507909E+05  2.494991372E+02  3.480141261E+02  3.016037283E+02  2.568136067E+02  6.642962177E-01 
       120  7.101404689E-02  1.668389198E-01  7.852135391E-02  1.196853848E+05  2.462270188E+02  3.485233486E+02  3.024874158E+02  2.551543844E+02  6.756301271E-01 
