nodenumber     x-coordinate     y-coordinate     z-coordinate         pressure velocity-magnitude      sound-speed      temperature rel-velocity-magnitude relative-velocity-angle 
         1 -2.216901913E-02  1.039879580E-01 -4.300600202E-02  8.754311861E+04  1.538598113E+02  3.330487012E+02  2.762221453E+02  2.357975577E+02  8.600117951E-01 
         2 -2.197401757E-02  1.042260031E-01 -4.002397295E-02  8.744306592E+04  1.548681015E+02  3.329556661E+02  2.760677470E+02  2.366396034E+02  8.576239489E-01 
         3 -2.150271627E-02  1.045375264E-01 -3.708169353E-02  8.735622351E+04  1.548906995E+02  3.329637470E+02  2.760811808E+02  2.368986982E+02  8.586767949E-01 
         4 -2.072290556E-02  1.049359494E-01 -3.421635317E-02  8.723158862E+04  1.553201594E+02  3.329243107E+02  2.760158176E+02  2.373176048E+02  8.583230302E-01 
         5 -1.964621854E-02  1.053757771E-01 -3.145501365E-02  8.710977271E+04  1.563118434E+02  3.328282967E+02  2.758566704E+02  2.385637245E+02  8.576789424E-01 
         6 -1.833909717E-02  1.058829391E-01 -2.880182754E-02  8.696707471E+04  1.571472139E+02  3.327450895E+02  2.757188425E+02  2.392731714E+02  8.560655527E-01 
         7 -1.686396899E-02  1.064019756E-01 -2.624136390E-02  8.677427783E+04  1.582846470E+02  3.326174631E+02  2.755072813E+02  2.405905089E+02  8.550248668E-01 
         8 -1.524276490E-02  1.069101094E-01 -2.376908005E-02  8.657404370E+04  1.590139258E+02  3.325321999E+02  2.753660388E+02  2.414966373E+02  8.546639178E-01 
         9 -1.353040875E-02  1.074492491E-01 -2.136449246E-02  8.636322241E+04  1.599861801E+02  3.324343457E+02  2.752039945E+02  2.426567430E+02  8.539532665E-01 
        10 -1.175719847E-02  1.079385502E-01 -1.899452623E-02  8.615563800E+04  1.614066594E+02  3.323089070E+02  2.749963045E+02  2.437819595E+02  8.507536585E-01 
        11 -9.920451205E-03  1.084473482E-01 -1.667649769E-02  8.607754434E+04  1.625933474E+02  3.322690369E+02  2.749303674E+02  2.447540313E+02  8.483115772E-01 
        12 -8.053093039E-03  1.089314126E-01 -1.437870322E-02  8.626460535E+04  1.632341834E+02  3.323457136E+02  2.750572839E+02  2.445411500E+02  8.446282344E-01 
        13 -6.139911673E-03  1.093816015E-01 -1.211111235E-02  8.678454590E+04  1.626790347E+02  3.326272631E+02  2.755234842E+02  2.431883707E+02  8.435350768E-01 
        14 -4.213714023E-03  1.098625599E-01 -9.853315987E-03  8.761337402E+04  1.601911774E+02  3.331000576E+02  2.763073368E+02  2.404648027E+02  8.484012075E-01 
        15 -2.267252226E-03  1.102821410E-01 -7.616721013E-03  8.864355859E+04  1.560365791E+02  3.336500149E+02  2.772207651E+02  2.369196177E+02  8.598127589E-01 
        16 -3.058463972E-04  1.106716081E-01 -5.380345181E-03  8.935597437E+04  1.498101978E+02  3.339758539E+02  2.777625132E+02  2.343892617E+02  8.863474578E-01 
        17  1.649896870E-03  1.110991589E-01 -3.144821902E-03  8.734779309E+04  1.468666935E+02  3.328981605E+02  2.759740970E+02  2.421463945E+02  9.306272184E-01 
        18  3.605378217E-03  1.114680886E-01 -8.997268064E-04  7.576046143E+04  1.757727113E+02  3.263094373E+02  2.651585450E+02  2.868239703E+02  9.435541574E-01 
        19  5.548952344E-03  1.118349081E-01  1.356589372E-03  7.005571600E+04  2.059132710E+02  3.231252058E+02  2.600084615E+02  3.035298817E+02  8.474138416E-01 
        20  7.472030685E-03  1.121892539E-01  3.633809071E-03  7.297296477E+04  2.111499814E+02  3.249197956E+02  2.629077734E+02  2.978085020E+02  7.936606971E-01 
        21  9.366594022E-03  1.125505666E-01  5.932977735E-03  7.665938824E+04  2.078147746E+02  3.271867936E+02  2.665885410E+02  2.837275522E+02  7.563941372E-01 
        22  1.122147558E-02  1.129077905E-01  8.263617067E-03  7.914168390E+04  2.073088249E+02  3.286370076E+02  2.689552878E+02  2.733670003E+02  7.209316767E-01 
        23  1.303284284E-02  1.132507638E-01  1.062953057E-02  8.071330965E+04  2.090385151E+02  3.295777667E+02  2.704964566E+02  2.686752892E+02  6.954182701E-01 
        24  1.479928419E-02  1.136234762E-01  1.303021626E-02  8.180284180E+04  2.138192036E+02  3.301358316E+02  2.714127614E+02  2.660627304E+02  6.619619892E-01 
        25  1.649617427E-02  1.139938279E-01  1.547769530E-02  8.275524268E+04  2.193314898E+02  3.305712938E+02  2.721292427E+02  2.634762039E+02  6.248371755E-01 
        26  1.811807173E-02  1.143837002E-01  1.797032872E-02  8.341805334E+04  2.249413748E+02  3.308746238E+02  2.726289406E+02  2.618204427E+02  5.904131848E-01 
        27  1.968166241E-02  1.148013513E-01  2.049621310E-02  8.350157239E+04  2.315465190E+02  3.309016705E+02  2.726732841E+02  2.618964760E+02  5.572012691E-01 
        28  2.119101764E-02  1.152299366E-01  2.305322148E-02  8.304171738E+04  2.404405224E+02  3.305457541E+02  2.720867633E+02  2.647690604E+02  5.223442186E-01 
        29  2.266338778E-02  1.156643914E-01  2.563116057E-02  8.247276697E+04  2.492681553E+02  3.301952479E+02  2.715104775E+02  2.681193646E+02  4.890580028E-01 
        30  2.408077791E-02  1.161159634E-01  2.823658064E-02  8.197149866E+04  2.572195754E+02  3.299721992E+02  2.711435993E+02  2.703615775E+02  4.567190628E-01 
        31  2.544088325E-02  1.165921105E-01  3.086849856E-02  8.141042542E+04  2.654369423E+02  3.296431355E+02  2.706032276E+02  2.727840128E+02  4.242359851E-01 
        32  2.674433127E-02  1.170738851E-01  3.352942364E-02  8.078463635E+04  2.742920814E+02  3.291671915E+02  2.698226323E+02  2.763791478E+02  3.930120934E-01 
        33  2.797950643E-02  1.175445507E-01  3.622298897E-02  8.020141003E+04  2.828171972E+02  3.287658746E+02  2.691649309E+02  2.801101366E+02  3.639673323E-01 
        34  2.916313541E-02  1.180056499E-01  3.893937175E-02  7.988068587E+04  2.896174384E+02  3.287231399E+02  2.690948740E+02  2.820641859E+02  3.371649551E-01 
        35  3.031249539E-02  1.184785399E-01  4.167042727E-02  7.996644992E+04  2.950597994E+02  3.289353344E+02  2.694420767E+02  2.823506072E+02  3.111333339E-01 
        36  3.139929926E-02  1.189405785E-01  4.442941843E-02  8.022169769E+04  3.012733738E+02  3.290534970E+02  2.696357340E+02  2.829641519E+02  2.824367913E-01 
        37  3.242013936E-02  1.193808800E-01  4.721660669E-02  8.079603027E+04  3.068144028E+02  3.293825547E+02  2.701756542E+02  2.823170055E+02  2.520191781E-01 
        38  3.340677803E-02  1.198011670E-01  5.002067675E-02  8.209744394E+04  3.097363225E+02  3.301592103E+02  2.714512978E+02  2.791869391E+02  2.254845164E-01 
        39  3.430413654E-02  1.201853153E-01  5.285529857E-02  8.383317920E+04  3.111760550E+02  3.311054935E+02  2.730097942E+02  2.743641424E+02  2.000546064E-01 
        40  3.515433510E-02  1.205874318E-01  5.570324370E-02  8.594324609E+04  3.109446335E+02  3.322556896E+02  2.749106483E+02  2.680838165E+02  1.779125286E-01 
        41  3.592907297E-02  1.209644065E-01  5.857535950E-02  8.831774194E+04  3.090236030E+02  3.335752420E+02  2.770989237E+02  2.606782036E+02  1.607394726E-01 
        42  3.664355424E-02  1.213334730E-01  6.146049591E-02  9.077870044E+04  3.058585157E+02  3.348252406E+02  2.791790295E+02  2.527618389E+02  1.489356046E-01 
        43  3.727845098E-02  1.217084379E-01  6.437276718E-02  9.304809106E+04  3.020794430E+02  3.358649960E+02  2.809149275E+02  2.453368454E+02  1.431975127E-01 
        44  3.781448665E-02  1.220744111E-01  6.730672953E-02  9.484720313E+04  2.983398800E+02  3.367086344E+02  2.823270788E+02  2.393861461E+02  1.437607515E-01 
        45  3.826762164E-02  1.224563704E-01  7.025293559E-02  9.601934320E+04  2.956122670E+02  3.372766402E+02  2.832801094E+02  2.357283176E+02  1.481550225E-01 
        46  3.856443464E-02  1.228195695E-01  7.317567491E-02  9.660953906E+04  2.936435165E+02  3.376744537E+02  2.839490585E+02  2.338418121E+02  1.552150063E-01 
        47  3.882754171E-02  1.231963568E-01  7.616928387E-02  9.677001447E+04  2.918909265E+02  3.382595767E+02  2.849355901E+02  2.318127330E+02  1.609533013E-01 
        48  3.896508106E-02  1.235573809E-01  7.913505459E-02  9.668608594E+04  2.871646614E+02  3.394717178E+02  2.869967613E+02  2.241783714E+02  1.661744416E-01 
        49  3.903512947E-02  1.239238609E-01  8.213137167E-02  9.658285168E+04  2.765290084E+02  3.417409806E+02  2.908729191E+02  2.052805216E+02  1.753797268E-01 
        50  3.900153017E-02  1.243001337E-01  8.510504302E-02  9.646789853E+04  2.582872120E+02  3.454207813E+02  2.971824504E+02  1.708333618E+02  1.853979723E-01 
        51  3.889299026E-02  1.246700891E-01  8.806950082E-02  9.613524500E+04  2.402621496E+02  3.492649033E+02  3.038206139E+02  1.237839329E+02  1.772971376E-01 
        52  3.870303970E-02  1.250405990E-01  9.105247242E-02  9.601665308E+04  2.339218011E+02  3.516799173E+02  3.080065503E+02  8.291036785E+01  4.255050632E-02 
        53  3.847530202E-02  1.253810613E-01  9.402032493E-02  9.641413803E+04  2.334596828E+02  3.527000465E+02  3.097917572E+02  4.917092770E+01 -3.772012987E-01 
        54  3.809583015E-02  1.257752167E-01  9.695318516E-02  9.684362793E+04  2.353838806E+02  3.527457047E+02  3.098661423E+02  4.131907845E+01 -1.608080171E+00 
        55  3.767199372E-02  1.261489404E-01  9.992435767E-02  9.814620044E+04  2.486293693E+02  3.524147959E+02  3.092818570E+02  4.819416618E+01 -1.969945997E+00 
        56  3.723780727E-02  1.265196365E-01  1.028569506E-01  9.970115192E+04  2.540799907E+02  3.514005002E+02  3.075055900E+02  6.898918559E+01 -1.080362774E+00 
        57  3.672955052E-02  1.269046997E-01  1.057947981E-01  1.012000107E+05  2.432700458E+02  3.497673087E+02  3.046527581E+02  1.108340549E+02 -2.486758982E-02 
        58  3.615520807E-02  1.273091289E-01  1.087154776E-01  1.036020627E+05  2.362882972E+02  3.474356022E+02  3.006069698E+02  1.501018090E+02  2.642164696E-01 
        59  3.556812424E-02  1.277144368E-01  1.116309472E-01  1.061878149E+05  2.433713422E+02  3.450005312E+02  2.964065537E+02  1.761747984E+02  2.833829147E-01 
        60  3.495651588E-02  1.281329458E-01  1.145394580E-01  1.077552537E+05  2.515520267E+02  3.438903193E+02  2.944999189E+02  1.849694462E+02  2.559086788E-01 
        61  3.433795015E-02  1.285471243E-01  1.174457346E-01  1.082252810E+05  2.604922121E+02  3.434846163E+02  2.938053718E+02  1.893298404E+02  2.146172125E-01 
        62  3.376061330E-02  1.289460490E-01  1.203607660E-01  1.081112800E+05  2.675860403E+02  3.432554555E+02  2.934131634E+02  1.935783620E+02  1.864362056E-01 
        63  3.331803132E-02  1.293309423E-01  1.232882868E-01  1.079965816E+05  2.697367113E+02  3.432828524E+02  2.934595605E+02  1.959038399E+02  1.832034462E-01 
        64  3.310586596E-02  1.296649637E-01  1.262581306E-01  1.079968129E+05  2.705475399E+02  3.430870907E+02  2.931248741E+02  1.971117331E+02  1.843002852E-01 
        65  3.306639982E-02  1.299493947E-01  1.292495641E-01  1.079948751E+05  2.708440948E+02  3.429488977E+02  2.928883799E+02  1.996679646E+02  1.931147962E-01 
        66  3.322486525E-02  1.302097713E-01  1.322380794E-01  1.079172543E+05  2.718009819E+02  3.428430918E+02  2.927076663E+02  2.013837777E+02  1.953030103E-01 
        67  3.356462385E-02  1.304573038E-01  1.352130229E-01  1.077308783E+05  2.730341511E+02  3.427980587E+02  2.926308900E+02  2.021339449E+02  1.928038737E-01 
        68  3.400410102E-02  1.306751199E-01  1.381765647E-01  1.073983359E+05  2.744849708E+02  3.427281923E+02  2.925115414E+02  2.031131203E+02  1.897955190E-01 
        69  3.451963359E-02  1.308741206E-01  1.411278790E-01  1.070739790E+05  2.760478532E+02  3.426508989E+02  2.923795724E+02  2.051372397E+02  1.898415342E-01 
        70  3.508991352E-02  1.310576265E-01  1.440660380E-01  1.067296486E+05  2.777033300E+02  3.425316930E+02  2.921761470E+02  2.075497293E+02  1.907020477E-01 
        71  3.570211579E-02  1.312503676E-01  1.470000000E-01  1.062947900E+05  2.794722824E+02  3.423338013E+02  2.918356895E+02  2.101892471E+02  1.914472934E-01 
        72 -2.843361623E-02  1.708417341E-01 -4.258217492E-02  8.209181787E+04  1.840487475E+02  3.299696188E+02  2.711383228E+02  3.446563549E+02  1.007422142E+00 
        73 -2.838826984E-02  1.709653765E-01 -3.916427879E-02  8.217459479E+04  1.836758354E+02  3.300623555E+02  2.712908723E+02  3.446335053E+02  1.008722333E+00 
        74 -2.835908450E-02  1.711140563E-01 -3.574649433E-02  8.237050897E+04  1.835071499E+02  3.301821740E+02  2.714879658E+02  3.427076750E+02  1.006071520E+00 
        75 -2.838361088E-02  1.712589164E-01 -3.232950605E-02  8.274565894E+04  1.836574287E+02  3.303218641E+02  2.717178421E+02  3.437817554E+02  1.007491067E+00 
        76 -2.841360827E-02  1.714319125E-01 -2.891476756E-02  8.319318860E+04  1.823015280E+02  3.306820183E+02  2.723105421E+02  3.412241988E+02  1.007577369E+00 
        77 -2.833774301E-02  1.716334782E-01 -2.549995819E-02  8.376603088E+04  1.811352732E+02  3.310088627E+02  2.728491290E+02  3.401023947E+02  1.009539540E+00 
        78 -2.791452343E-02  1.719215161E-01 -2.212016887E-02  8.423393604E+04  1.809381676E+02  3.311546783E+02  2.730896120E+02  3.389388332E+02  1.008428093E+00 
        79 -2.700703325E-02  1.722886754E-01 -1.884820631E-02  8.415601709E+04  1.800857544E+02  3.311496754E+02  2.730817165E+02  3.410764313E+02  1.015086129E+00 
        80 -2.544395246E-02  1.727209334E-01 -1.584518523E-02  8.315737061E+04  1.818479894E+02  3.305369375E+02  2.720722733E+02  3.436502633E+02  1.013677400E+00 
        81 -2.351536464E-02  1.732363399E-01 -1.306823492E-02  8.134242595E+04  1.845675386E+02  3.296114253E+02  2.705502820E+02  3.486930712E+02  1.013463363E+00 
        82 -2.134527601E-02  1.737374909E-01 -1.047435973E-02  7.871424564E+04  1.918092737E+02  3.279221734E+02  2.677856153E+02  3.549487443E+02  1.000609863E+00 
        83 -1.897326710E-02  1.742189522E-01 -8.035177519E-03  7.586166776E+04  1.970583928E+02  3.264636011E+02  2.654087160E+02  3.628453052E+02  9.978887816E-01 
        84 -1.652827274E-02  1.746780172E-01 -5.688541800E-03  7.361931055E+04  2.058311291E+02  3.248211617E+02  2.627448106E+02  3.703758855E+02  9.833458709E-01 
        85 -1.397929867E-02  1.751251779E-01 -3.446989688E-03  7.263819824E+04  2.091575661E+02  3.243218088E+02  2.619389057E+02  3.723710265E+02  9.761369899E-01 
        86 -1.139011487E-02  1.755573757E-01 -1.256774906E-03  7.345001636E+04  2.106925623E+02  3.247579184E+02  2.626469564E+02  3.716686120E+02  9.697382115E-01 
        87 -8.734274343E-03  1.759085237E-01  8.667805443E-04  7.817446783E+04  2.052795557E+02  3.276429379E+02  2.673381097E+02  3.595169065E+02  9.642251479E-01 
        88 -6.073383534E-03  1.762548475E-01  2.984781313E-03  8.819145233E+04  1.908761672E+02  3.333941591E+02  2.768023655E+02  3.314966476E+02  9.647777583E-01 
        89 -3.359730182E-03  1.765819110E-01  5.053045394E-03  9.771196967E+04  1.749139991E+02  3.381485476E+02  2.847496167E+02  3.066804531E+02  9.863059954E-01 
        90 -6.741955509E-04  1.768270807E-01  7.130208361E-03  9.694300028E+04  1.680133808E+02  3.376464082E+02  2.839034546E+02  3.098959470E+02  1.013918948E+00 
        91  2.027043660E-03  1.770783858E-01  9.208570588E-03  7.856345477E+04  1.979123282E+02  3.272485504E+02  2.666922944E+02  3.591476705E+02  9.886434634E-01 
        92  4.731686997E-03  1.772422585E-01  1.127155269E-02  7.367892520E+04  2.103987256E+02  3.249968367E+02  2.630304010E+02  3.724384944E+02  9.719945242E-01 
        93  7.454465044E-03  1.773874983E-01  1.334309669E-02  7.385459238E+04  2.074006043E+02  3.250301585E+02  2.630841144E+02  3.691926843E+02  9.754710856E-01 
        94  1.015989937E-02  1.775222933E-01  1.545596277E-02  7.079777387E+04  2.155936095E+02  3.232089027E+02  2.601494315E+02  3.795117906E+02  9.694347719E-01 
        95  1.284858280E-02  1.775661421E-01  1.756817794E-02  6.740086386E+04  2.277407004E+02  3.209399177E+02  2.565104121E+02  3.924932098E+02  9.564547110E-01 
        96  1.551966693E-02  1.776138061E-01  1.970369132E-02  6.440994141E+04  2.373274503E+02  3.188065498E+02  2.531151574E+02  4.012090235E+02  9.437263822E-01 
        97  1.817410325E-02  1.776258069E-01  2.186017323E-02  6.168695361E+04  2.445601265E+02  3.170215001E+02  2.502863564E+02  4.070062923E+02  9.328008238E-01 
        98  2.080993586E-02  1.775631240E-01  2.403936301E-02  5.970563635E+04  2.525820336E+02  3.155313106E+02  2.479372663E+02  4.126585255E+02  9.189619701E-01 
        99  2.341570779E-02  1.774969016E-01  2.625394818E-02  5.927431226E+04  2.581105008E+02  3.151836338E+02  2.473920765E+02  4.156413002E+02  9.068895672E-01 
       100  2.600295182E-02  1.773818036E-01  2.848806157E-02  6.103737549E+04  2.600969696E+02  3.165169687E+02  2.495000734E+02  4.115665236E+02  8.911386952E-01 
       101  2.856627515E-02  1.771883875E-01  3.074502562E-02  6.650670923E+04  2.557969542E+02  3.203862877E+02  2.556917953E+02  3.957072773E+02  8.718883134E-01 
       102  3.110662233E-02  1.769811535E-01  3.302644514E-02  7.503311890E+04  2.464846945E+02  3.260410833E+02  2.647938051E+02  3.712112312E+02  8.520611301E-01 
       103  3.362247542E-02  1.767159818E-01  3.532849163E-02  8.174008374E+04  2.428805852E+02  3.299923944E+02  2.711978617E+02  3.530677605E+02  8.281934112E-01 
       104  3.610895472E-02  1.763647845E-01  3.765120331E-02  8.295562927E+04  2.473824251E+02  3.306874161E+02  2.723278251E+02  3.502045999E+02  8.076923760E-01 
       105  3.856497337E-02  1.759966372E-01  4.000321012E-02  8.056752930E+04  2.561981878E+02  3.293247175E+02  2.700858437E+02  3.570571615E+02  7.905293298E-01 
       106  4.103059304E-02  1.755360248E-01  4.234569910E-02  7.844399602E+04  2.642204506E+02  3.280313229E+02  2.679654784E+02  3.636207861E+02  7.754858884E-01 
       107  4.340106546E-02  1.750377176E-01  4.474435622E-02  7.878927278E+04  2.677988701E+02  3.283200081E+02  2.684381250E+02  3.625433539E+02  7.611967598E-01 
       108  4.575540032E-02  1.745445103E-01  4.717695363E-02  8.218065356E+04  2.664947672E+02  3.303894029E+02  2.718381951E+02  3.522609553E+02  7.461634753E-01 
       109  4.807037784E-02  1.739953488E-01  4.963532790E-02  8.836435522E+04  2.615097609E+02  3.338501596E+02  2.775709486E+02  3.353121691E+02  7.331949882E-01 
       110  5.034733117E-02  1.734133857E-01  5.212084081E-02  9.488447461E+04  2.570248661E+02  3.373555164E+02  2.834220257E+02  3.159447231E+02  7.164136991E-01 
       111  5.258765486E-02  1.728405975E-01  5.464144749E-02  9.926465918E+04  2.570762959E+02  3.394549236E+02  2.869530544E+02  3.051725769E+02  6.988588013E-01 
       112  5.479076840E-02  1.722430532E-01  5.718902978E-02  1.021014275E+05  2.581969185E+02  3.407050962E+02  2.890696173E+02  3.005616198E+02  6.876843553E-01 
       113  5.694737683E-02  1.716020731E-01  5.976586917E-02  1.050532451E+05  2.581555665E+02  3.419759707E+02  2.912306409E+02  2.933296075E+02  6.771935704E-01 
       114  5.911848447E-02  1.709340834E-01  6.233872565E-02  1.083975035E+05  2.567952970E+02  3.434691412E+02  2.937793007E+02  2.839432377E+02  6.687755355E-01 
       115  6.119351897E-02  1.703313828E-01  6.496775561E-02  1.112938772E+05  2.549588118E+02  3.448765707E+02  2.961915712E+02  2.747511377E+02  6.637785211E-01 
       116  6.319798910E-02  1.696485115E-01  6.765543605E-02  1.136009647E+05  2.537205868E+02  3.459699035E+02  2.980715742E+02  2.687673368E+02  6.607547421E-01 
       117  6.520189851E-02  1.689621155E-01  7.034628384E-02  1.156994731E+05  2.528273926E+02  3.467883329E+02  2.994832277E+02  2.639002676E+02  6.584075131E-01 
       118  6.717992039E-02  1.682884043E-01  7.305807409E-02  1.174454575E+05  2.499626083E+02  3.476582174E+02  3.009876547E+02  2.599519329E+02  6.654196568E-01 
       119  6.910755662E-02  1.675987334E-01  7.579818779E-02  1.188114847E+05  2.499488251E+02  3.480343451E+02  3.016391828E+02  2.570880604E+02  6.626157733E-01 
       120  7.101404689E-02  1.668389198E-01  7.852135391E-02  1.197213622E+05  2.467377076E+02  3.485346203E+02  3.025068505E+02  2.536926219E+02  6.721746526E-01 
