nodenumber     x-coordinate     y-coordinate     z-coordinate         pressure velocity-magnitude      sound-speed      temperature rel-velocity-magnitude relative-velocity-angle 
         1 -2.216901913E-02  1.039879580E-01 -4.300600202E-02  8.755315215E+04  1.539432039E+02  3.330522062E+02  2.762278373E+02  2.357938035E+02  8.594795124E-01 
         2 -2.197401757E-02  1.042260031E-01 -4.002397295E-02  8.747390222E+04  1.544289507E+02  3.330092776E+02  2.761566324E+02  2.363444929E+02  8.589565395E-01 
         3 -2.150271627E-02  1.045375264E-01 -3.708169353E-02  8.737094666E+04  1.550576717E+02  3.329536190E+02  2.760643816E+02  2.370196289E+02  8.581834245E-01 
         4 -2.072290556E-02  1.049359494E-01 -3.421635317E-02  8.725431934E+04  1.557510381E+02  3.328920836E+02  2.759623208E+02  2.377581575E+02  8.573504575E-01 
         5 -1.964621854E-02  1.053757771E-01 -3.145501365E-02  8.712877026E+04  1.564429884E+02  3.328272963E+02  2.758549180E+02  2.385114508E+02  8.566271737E-01 
         6 -1.833909717E-02  1.058829391E-01 -2.880182754E-02  8.697687451E+04  1.572026095E+02  3.327486496E+02  2.757245808E+02  2.394218216E+02  8.561340626E-01 
         7 -1.686396899E-02  1.064019756E-01 -2.624136390E-02  8.679554956E+04  1.580437684E+02  3.326535435E+02  2.755669804E+02  2.404344010E+02  8.555961568E-01 
         8 -1.524276490E-02  1.069101094E-01 -2.376908005E-02  8.658006299E+04  1.590351565E+02  3.325382242E+02  2.753759532E+02  2.415786357E+02  8.547466621E-01 
         9 -1.353040875E-02  1.074492491E-01 -2.136449246E-02  8.634066162E+04  1.602433641E+02  3.324090638E+02  2.751620641E+02  2.428778026E+02  8.533067526E-01 
        10 -1.175719847E-02  1.079385502E-01 -1.899452623E-02  8.614235150E+04  1.615319811E+02  3.323016148E+02  2.749841936E+02  2.439990082E+02  8.508379217E-01 
        11 -9.920451205E-03  1.084473482E-01 -1.667649769E-02  8.607498151E+04  1.626704965E+02  3.322639725E+02  2.749219781E+02  2.447428151E+02  8.478575204E-01 
        12 -8.053093039E-03  1.089314126E-01 -1.437870322E-02  8.625920502E+04  1.631637883E+02  3.323628273E+02  2.750855660E+02  2.444939405E+02  8.448696975E-01 
        13 -6.139911673E-03  1.093816015E-01 -1.211111235E-02  8.676961768E+04  1.625143647E+02  3.326373148E+02  2.755400958E+02  2.430095496E+02  8.437828254E-01 
        14 -4.213714023E-03  1.098625599E-01 -9.853315987E-03  8.756469775E+04  1.603722239E+02  3.330623569E+02  2.762447681E+02  2.404141378E+02  8.471102789E-01 
        15 -2.267252226E-03  1.102821410E-01 -7.616721013E-03  8.845423682E+04  1.564666204E+02  3.335381088E+02  2.770345612E+02  2.373682270E+02  8.588073328E-01 
        16 -3.058463972E-04  1.106716081E-01 -5.380345181E-03  8.940874634E+04  1.499104400E+02  3.340080175E+02  2.778158941E+02  2.342791920E+02  8.853001520E-01 
        17  1.649896870E-03  1.110991589E-01 -3.144821902E-03  8.725776428E+04  1.464935554E+02  3.328849754E+02  2.759522176E+02  2.424999969E+02  9.328297209E-01 
        18  3.605378217E-03  1.114680886E-01 -8.997268064E-04  7.569120032E+04  1.745776622E+02  3.262606311E+02  2.650779047E+02  2.855895987E+02  9.433677495E-01 
        19  5.548952344E-03  1.118349081E-01  1.356589372E-03  7.025459473E+04  2.066401834E+02  3.230274894E+02  2.598509436E+02  3.054723325E+02  8.508584821E-01 
        20  7.472030685E-03  1.121892539E-01  3.633809071E-03  7.269506378E+04  2.112807914E+02  3.244951158E+02  2.622200000E+02  2.966937827E+02  7.890928914E-01 
        21  9.366594022E-03  1.125505666E-01  5.932977735E-03  7.620130530E+04  2.084919777E+02  3.265211437E+02  2.655038838E+02  2.847377350E+02  7.567018331E-01 
        22  1.122147558E-02  1.129077905E-01  8.263617067E-03  7.866906999E+04  2.085887465E+02  3.279538141E+02  2.678378371E+02  2.768459931E+02  7.267930644E-01 
        23  1.303284284E-02  1.132507638E-01  1.062953057E-02  8.033178633E+04  2.109536207E+02  3.289759635E+02  2.695091084E+02  2.715122757E+02  6.954787706E-01 
        24  1.479928419E-02  1.136234762E-01  1.303021626E-02  8.147782262E+04  2.152795967E+02  3.296879656E+02  2.706765769E+02  2.677447250E+02  6.599131413E-01 
        25  1.649617427E-02  1.139938279E-01  1.547769530E-02  8.243501764E+04  2.203197899E+02  3.302461567E+02  2.715937190E+02  2.647397783E+02  6.235299148E-01 
        26  1.811807173E-02  1.143837002E-01  1.797032872E-02  8.315309375E+04  2.259033539E+02  3.306543341E+02  2.722650957E+02  2.629768300E+02  5.890009645E-01 
        27  1.968166241E-02  1.148013513E-01  2.049621310E-02  8.337179303E+04  2.328458462E+02  3.308129449E+02  2.725261271E+02  2.633377264E+02  5.551621099E-01 
        28  2.119101764E-02  1.152299366E-01  2.305322148E-02  8.297061353E+04  2.415100557E+02  3.306614330E+02  2.722765897E+02  2.658525296E+02  5.200450139E-01 
        29  2.266338778E-02  1.156643914E-01  2.563116057E-02  8.240783154E+04  2.503449526E+02  3.303761163E+02  2.718069735E+02  2.688621479E+02  4.859070245E-01 
        30  2.408077791E-02  1.161159634E-01  2.823658064E-02  8.186571405E+04  2.585951948E+02  3.301267087E+02  2.713970163E+02  2.716530786E+02  4.542760542E-01 
        31  2.544088325E-02  1.165921105E-01  3.086849856E-02  8.130850781E+04  2.667491274E+02  3.298549719E+02  2.709508355E+02  2.746829591E+02  4.243342141E-01 
        32  2.674433127E-02  1.170738851E-01  3.352942364E-02  8.073913159E+04  2.747112598E+02  3.295979123E+02  2.705291641E+02  2.777038217E+02  3.955823136E-01 
        33  2.797950643E-02  1.175445507E-01  3.622298897E-02  8.021221649E+04  2.824789730E+02  3.293640534E+02  2.701458960E+02  2.804037427E+02  3.667242794E-01 
        34  2.916313541E-02  1.180056499E-01  3.893937175E-02  7.991769191E+04  2.897159938E+02  3.291705208E+02  2.698287879E+02  2.822889932E+02  3.375399497E-01 
        35  3.031249539E-02  1.184785399E-01  4.167042727E-02  8.005097079E+04  2.954971137E+02  3.291156702E+02  2.697388985E+02  2.827384087E+02  3.105287270E-01 
        36  3.139929926E-02  1.189405785E-01  4.442941843E-02  8.034768463E+04  3.008216789E+02  3.291878325E+02  2.698568900E+02  2.826277858E+02  2.836551236E-01 
        37  3.242013936E-02  1.193808800E-01  4.721660669E-02  8.093087237E+04  3.057428478E+02  3.293083410E+02  2.700537959E+02  2.814190990E+02  2.543108423E-01 
        38  3.340677803E-02  1.198011670E-01  5.002067675E-02  8.216112463E+04  3.085014367E+02  3.299263792E+02  2.710682728E+02  2.780214741E+02  2.276118756E-01 
        39  3.430413654E-02  1.201853153E-01  5.285529857E-02  8.374769043E+04  3.102119980E+02  3.308785753E+02  2.726356535E+02  2.734816751E+02  2.018768815E-01 
        40  3.515433510E-02  1.205874318E-01  5.570324370E-02  8.566451807E+04  3.105657043E+02  3.319720097E+02  2.744410706E+02  2.677203693E+02  1.786361504E-01 
        41  3.592907297E-02  1.209644065E-01  5.857535950E-02  8.781992480E+04  3.095290179E+02  3.331307774E+02  2.763606610E+02  2.610218430E+02  1.593718422E-01 
        42  3.664355424E-02  1.213334730E-01  6.146049591E-02  9.008071216E+04  3.072393703E+02  3.342930937E+02  2.782922168E+02  2.539292302E+02  1.457633891E-01 
        43  3.727845098E-02  1.217084379E-01  6.437276718E-02  9.221639063E+04  3.041315527E+02  3.354269867E+02  2.801828384E+02  2.471313248E+02  1.384312226E-01 
        44  3.781448665E-02  1.220744111E-01  6.730672953E-02  9.397591699E+04  3.007667866E+02  3.364086943E+02  2.818248186E+02  2.413402562E+02  1.371953269E-01 
        45  3.826762164E-02  1.224563704E-01  7.025293559E-02  9.519670709E+04  2.979711843E+02  3.371324584E+02  2.830382714E+02  2.372014624E+02  1.397331081E-01 
        46  3.856443464E-02  1.228195695E-01  7.317567491E-02  9.589025391E+04  2.964708557E+02  3.375342407E+02  2.837128983E+02  2.356977539E+02  1.453486383E-01 
        47  3.882754171E-02  1.231963568E-01  7.616928387E-02  9.617201294E+04  2.952667046E+02  3.380258446E+02  2.845418801E+02  2.344051842E+02  1.506543143E-01 
        48  3.896508106E-02  1.235573809E-01  7.913505459E-02  9.617748047E+04  2.914600334E+02  3.389944229E+02  2.861873512E+02  2.280734634E+02  1.532393172E-01 
        49  3.903512947E-02  1.239238609E-01  8.213137167E-02  9.608686230E+04  2.832592180E+02  3.407497106E+02  2.891793578E+02  2.136278144E+02  1.560162811E-01 
        50  3.900153017E-02  1.243001337E-01  8.510504302E-02  9.596704468E+04  2.698126908E+02  3.435724883E+02  2.940006769E+02  1.890875294E+02  1.557527857E-01 
        51  3.889299026E-02  1.246700891E-01  8.806950082E-02  9.613494360E+04  2.539785683E+02  3.471193864E+02  3.001089602E+02  1.512785165E+02  1.403469397E-01 
        52  3.870303970E-02  1.250405990E-01  9.105247242E-02  9.652227515E+04  2.444282136E+02  3.501048446E+02  3.052698326E+02  1.163123630E+02  7.470637315E-02 
        53  3.847530202E-02  1.253810613E-01  9.402032493E-02  9.734115536E+04  2.421324955E+02  3.520865461E+02  3.087272040E+02  8.410362370E+01 -1.948203412E-01 
        54  3.809583015E-02  1.257752167E-01  9.695318516E-02  9.964926172E+04  2.400892792E+02  3.533454132E+02  3.109284096E+02  5.733146048E+01 -5.576482117E-01 
        55  3.767199372E-02  1.261489404E-01  9.992435767E-02  1.021598064E+05  2.394084477E+02  3.540499725E+02  3.121594148E+02  5.124615932E+01 -4.688778631E-01 
        56  3.723780727E-02  1.265196365E-01  1.028569506E-01  1.043055385E+05  2.370989745E+02  3.537611648E+02  3.116492087E+02  6.202623448E+01 -1.755369152E-01 
        57  3.672955052E-02  1.269046997E-01  1.057947981E-01  1.059501604E+05  2.370731661E+02  3.523186655E+02  3.091185055E+02  8.993726087E+01  2.170720696E-02 
        58  3.615520807E-02  1.273091289E-01  1.087154776E-01  1.070784309E+05  2.425983987E+02  3.498049726E+02  3.047298594E+02  1.269138217E+02  1.249239361E-01 
        59  3.556812424E-02  1.277144368E-01  1.116309472E-01  1.076966425E+05  2.527839382E+02  3.468732691E+02  2.996418674E+02  1.618855261E+02  1.710150556E-01 
        60  3.495651588E-02  1.281329458E-01  1.145394580E-01  1.079158569E+05  2.624327669E+02  3.445475020E+02  2.956304779E+02  1.854821692E+02  1.880069864E-01 
        61  3.433795015E-02  1.285471243E-01  1.174457346E-01  1.079067570E+05  2.680898769E+02  3.433422260E+02  2.935612431E+02  1.966341929E+02  1.922359925E-01 
        62  3.376061330E-02  1.289460490E-01  1.203607660E-01  1.078279862E+05  2.705465424E+02  3.429671659E+02  2.929193649E+02  2.002128174E+02  1.911721088E-01 
        63  3.331803132E-02  1.293309423E-01  1.232882868E-01  1.077822184E+05  2.718451318E+02  3.429371386E+02  2.928680023E+02  2.011330870E+02  1.883003907E-01 
        64  3.310586596E-02  1.296649637E-01  1.262581306E-01  1.077147869E+05  2.728561113E+02  3.429648366E+02  2.929153225E+02  2.014923383E+02  1.852787087E-01 
        65  3.306639982E-02  1.299493947E-01  1.292495641E-01  1.076290180E+05  2.737700248E+02  3.429695090E+02  2.929232967E+02  2.019110068E+02  1.830626215E-01 
        66  3.322486525E-02  1.302097713E-01  1.322380794E-01  1.075019973E+05  2.747407280E+02  3.429307520E+02  2.928570549E+02  2.026758485E+02  1.819201676E-01 
        67  3.356462385E-02  1.304573038E-01  1.352130229E-01  1.073433909E+05  2.757480021E+02  3.428679724E+02  2.927498677E+02  2.037751734E+02  1.820915905E-01 
        68  3.400410102E-02  1.306751199E-01  1.381765647E-01  1.071463746E+05  2.767905626E+02  3.427840667E+02  2.926066163E+02  2.051070242E+02  1.827806842E-01 
        69  3.451963359E-02  1.308741206E-01  1.411278790E-01  1.069209868E+05  2.778857427E+02  3.426837826E+02  2.924354446E+02  2.066015105E+02  1.837921138E-01 
        70  3.508991352E-02  1.310576265E-01  1.440660380E-01  1.066516483E+05  2.789558637E+02  3.425809488E+02  2.922599244E+02  2.081919422E+02  1.853215268E-01 
        71  3.570211579E-02  1.312503676E-01  1.470000000E-01  1.063214375E+05  2.803705292E+02  3.424131966E+02  2.919750061E+02  2.102622356E+02  1.862396244E-01 
        72 -2.843361623E-02  1.708417341E-01 -4.258217492E-02  8.204162183E+04  1.838000369E+02  3.299756155E+02  2.711481075E+02  3.443339911E+02  1.007593494E+00 
        73 -2.838826984E-02  1.709653765E-01 -3.916427879E-02  8.200838495E+04  1.842478971E+02  3.299628890E+02  2.711272032E+02  3.445873179E+02  1.006521738E+00 
        74 -2.835908450E-02  1.711140563E-01 -3.574649433E-02  8.233137860E+04  1.839751443E+02  3.301526577E+02  2.714391935E+02  3.438819935E+02  1.006182033E+00 
        75 -2.838361088E-02  1.712589164E-01 -3.232950605E-02  8.303295239E+04  1.828875651E+02  3.305541344E+02  2.720998440E+02  3.421618557E+02  1.006838530E+00 
        76 -2.841360827E-02  1.714319125E-01 -2.891476756E-02  8.387069971E+04  1.813286819E+02  3.310240827E+02  2.728739624E+02  3.400684409E+02  1.008507565E+00 
        77 -2.833774301E-02  1.716334782E-01 -2.549995819E-02  8.446469226E+04  1.800385553E+02  3.313498437E+02  2.734112486E+02  3.386731137E+02  1.010538869E+00 
        78 -2.791452343E-02  1.719215161E-01 -2.212016887E-02  8.463523633E+04  1.794138117E+02  3.314377022E+02  2.735563097E+02  3.385281277E+02  1.012480747E+00 
        79 -2.700703325E-02  1.722886754E-01 -1.884820631E-02  8.429586572E+04  1.795263085E+02  3.312525187E+02  2.732507811E+02  3.397272644E+02  1.014209576E+00 
        80 -2.544395246E-02  1.727209334E-01 -1.584518523E-02  8.312401373E+04  1.812286984E+02  3.305915029E+02  2.721615341E+02  3.431673238E+02  1.014439821E+00 
        81 -2.351536464E-02  1.732363399E-01 -1.306823492E-02  8.105478848E+04  1.853098107E+02  3.294072727E+02  2.702155058E+02  3.492310995E+02  1.011481087E+00 
        82 -2.134527601E-02  1.737374909E-01 -1.047435973E-02  7.823028072E+04  1.920367992E+02  3.277554319E+02  2.675125684E+02  3.574235486E+02  1.004026573E+00 
        83 -1.897326710E-02  1.742189522E-01 -8.035177519E-03  7.524948236E+04  2.001783659E+02  3.259630852E+02  2.645946665E+02  3.660860279E+02  9.934303057E-01 
        84 -1.652827274E-02  1.746780172E-01 -5.688541800E-03  7.308401611E+04  2.068722632E+02  3.246146231E+02  2.624096270E+02  3.724511003E+02  9.836666463E-01 
        85 -1.397929867E-02  1.751251779E-01 -3.446989688E-03  7.252181323E+04  2.097460041E+02  3.242373438E+02  2.617997704E+02  3.742388535E+02  9.775665496E-01 
        86 -1.139011487E-02  1.755573757E-01 -1.256774906E-03  7.419351807E+04  2.083882577E+02  3.252896466E+02  2.635040350E+02  3.699161334E+02  9.732149616E-01 
        87 -8.734274343E-03  1.759085237E-01  8.667805443E-04  7.960199896E+04  2.020782562E+02  3.285597908E+02  2.688340242E+02  3.552530820E+02  9.662222732E-01 
        88 -6.073383534E-03  1.762548475E-01  2.984781313E-03  8.908944855E+04  1.908202864E+02  3.338073130E+02  2.774881270E+02  3.295839183E+02  9.613885731E-01 
        89 -3.359730182E-03  1.765819110E-01  5.053045394E-03  9.848117133E+04  1.756608199E+02  3.384402211E+02  2.852399505E+02  3.039782653E+02  9.799893647E-01 
        90 -6.741955509E-04  1.768270807E-01  7.130208361E-03  9.869781513E+04  1.641983607E+02  3.385769643E+02  2.854699097E+02  3.039775633E+02  1.020370793E+00 
        91  2.027043660E-03  1.770783858E-01  9.208570588E-03  7.899507372E+04  1.928001568E+02  3.281969004E+02  2.682374614E+02  3.578339370E+02  1.002526960E+00 
        92  4.731686997E-03  1.772422585E-01  1.127155269E-02  7.194467857E+04  2.148879805E+02  3.241991749E+02  2.617399135E+02  3.776244543E+02  9.667626764E-01 
        93  7.454465044E-03  1.773874983E-01  1.334309669E-02  7.283415894E+04  2.097786500E+02  3.244837413E+02  2.621995201E+02  3.748719184E+02  9.781360829E-01 
        94  1.015989937E-02  1.775222933E-01  1.545596277E-02  7.039696532E+04  2.169067292E+02  3.227964279E+02  2.594832151E+02  3.821221856E+02  9.693227671E-01 
        95  1.284858280E-02  1.775661421E-01  1.756817794E-02  6.688512302E+04  2.279367357E+02  3.205778112E+02  2.559304610E+02  3.923327744E+02  9.543316877E-01 
        96  1.551966693E-02  1.776138061E-01  1.970369132E-02  6.388853271E+04  2.376779370E+02  3.185063267E+02  2.526330664E+02  4.013790765E+02  9.418347208E-01 
        97  1.817410325E-02  1.776258069E-01  2.186017323E-02  6.151947363E+04  2.457876599E+02  3.168080020E+02  2.499448447E+02  4.085505228E+02  9.310734700E-01 
        98  2.080993586E-02  1.775631240E-01  2.403936301E-02  5.993255847E+04  2.529177446E+02  3.156113915E+02  2.480578990E+02  4.135223665E+02  9.187992048E-01 
        99  2.341570779E-02  1.774969016E-01  2.625394818E-02  5.974678894E+04  2.575291324E+02  3.154825058E+02  2.478557725E+02  4.145559111E+02  9.057415240E-01 
       100  2.600295182E-02  1.773818036E-01  2.848806157E-02  6.208727588E+04  2.576256666E+02  3.172158356E+02  2.506074142E+02  4.083747330E+02  8.914111294E-01 
       101  2.856627515E-02  1.771883875E-01  3.074502562E-02  6.812020435E+04  2.511622200E+02  3.213989067E+02  2.573001299E+02  3.907579241E+02  8.751905933E-01 
       102  3.110662233E-02  1.769811535E-01  3.302644514E-02  7.587047070E+04  2.436016521E+02  3.263199530E+02  2.652246447E+02  3.683215075E+02  8.543208018E-01 
       103  3.362247542E-02  1.767159818E-01  3.532849163E-02  8.083286938E+04  2.434429936E+02  3.292074394E+02  2.698980598E+02  3.549809141E+02  8.284568489E-01 
       104  3.610895472E-02  1.763647845E-01  3.765120331E-02  8.094060706E+04  2.504840510E+02  3.293552070E+02  2.701321712E+02  3.552391400E+02  8.052681554E-01 
       105  3.856497337E-02  1.759966372E-01  4.000321012E-02  7.875400815E+04  2.588849741E+02  3.282456245E+02  2.683146064E+02  3.616757507E+02  7.890973859E-01 
       106  4.103059304E-02  1.755360248E-01  4.234569910E-02  7.767773904E+04  2.646673936E+02  3.277383527E+02  2.674840331E+02  3.651997461E+02  7.763361185E-01 
       107  4.340106546E-02  1.750377176E-01  4.474435622E-02  7.950681699E+04  2.662976530E+02  3.289213631E+02  2.694232203E+02  3.608692989E+02  7.626469452E-01 
       108  4.575540032E-02  1.745445103E-01  4.717695363E-02  8.459971777E+04  2.631401470E+02  3.317187386E+02  2.740314126E+02  3.473272829E+02  7.484377157E-01 
       109  4.807037784E-02  1.739953488E-01  4.963532790E-02  9.078450342E+04  2.590712366E+02  3.348709955E+02  2.792614908E+02  3.303019981E+02  7.324026823E-01 
       110  5.034733117E-02  1.734133857E-01  5.212084081E-02  9.522160400E+04  2.581324463E+02  3.371641388E+02  2.830939102E+02  3.182373524E+02  7.153631859E-01 
       111  5.258765486E-02  1.728405975E-01  5.464144749E-02  9.816996533E+04  2.587391529E+02  3.387623386E+02  2.857830124E+02  3.102595863E+02  7.004871927E-01 
       112  5.479076840E-02  1.722430532E-01  5.718902978E-02  1.011170198E+05  2.586180601E+02  3.402498007E+02  2.882979393E+02  3.021322765E+02  6.883919947E-01 
       113  5.694737683E-02  1.716020731E-01  5.976586917E-02  1.042887874E+05  2.580125308E+02  3.417340662E+02  2.908181407E+02  2.935318985E+02  6.777489777E-01 
       114  5.911848447E-02  1.709340834E-01  6.233872565E-02  1.073129468E+05  2.574372814E+02  3.431124505E+02  2.931682236E+02  2.856499816E+02  6.685345965E-01 
       115  6.119351897E-02  1.703313828E-01  6.496775561E-02  1.099621008E+05  2.567206969E+02  3.443122368E+02  2.952221851E+02  2.785543637E+02  6.617246382E-01 
       116  6.319798910E-02  1.696485115E-01  6.765543605E-02  1.123610457E+05  2.558930712E+02  3.453789773E+02  2.970540323E+02  2.716467242E+02  6.557957651E-01 
       117  6.520189851E-02  1.689621155E-01  7.034628384E-02  1.147257578E+05  2.548488674E+02  3.463931427E+02  2.988010168E+02  2.654693251E+02  6.522495542E-01 
       118  6.717992039E-02  1.682884043E-01  7.305807409E-02  1.173463584E+05  2.530987539E+02  3.475154638E+02  3.007402258E+02  2.586903877E+02  6.513037067E-01 
       119  6.910755662E-02  1.675987334E-01  7.579818779E-02  1.192125288E+05  2.508916652E+02  3.482674105E+02  3.020430155E+02  2.537075343E+02  6.550596799E-01 
       120  7.101404689E-02  1.668389198E-01  7.852135391E-02  1.202466399E+05  2.472390985E+02  3.486935627E+02  3.027826385E+02  2.504510527E+02  6.666222503E-01 
