nodenumber     x-coordinate     y-coordinate     z-coordinate         pressure velocity-magnitude      sound-speed      temperature rel-velocity-magnitude relative-velocity-angle 
         1 -2.216901913E-02  1.039879580E-01 -4.300600202E-02  8.754806229E+04  1.539578846E+02  3.330491253E+02  2.762227611E+02  2.357978970E+02  8.594136646E-01 
         2 -2.197401757E-02  1.042260031E-01 -4.002397295E-02  8.746512115E+04  1.544319755E+02  3.330058233E+02  2.761509320E+02  2.363336083E+02  8.589007955E-01 
         3 -2.150271627E-02  1.045375264E-01 -3.708169353E-02  8.736206525E+04  1.550312498E+02  3.329524045E+02  2.760623603E+02  2.369872380E+02  8.582147835E-01 
         4 -2.072290556E-02  1.049359494E-01 -3.421635317E-02  8.725497119E+04  1.556717227E+02  3.328973622E+02  2.759710608E+02  2.376841474E+02  8.575293487E-01 
         5 -1.964621854E-02  1.053757771E-01 -3.145501365E-02  8.715024561E+04  1.563485479E+02  3.328401957E+02  2.758763175E+02  2.384488692E+02  8.569443692E-01 
         6 -1.833909717E-02  1.058829391E-01 -2.880182754E-02  8.700902197E+04  1.571080232E+02  3.327661581E+02  2.757536001E+02  2.393731589E+02  8.565070033E-01 
         7 -1.686396899E-02  1.064019756E-01 -2.624136390E-02  8.681619092E+04  1.580102220E+02  3.326640596E+02  2.755844297E+02  2.403922858E+02  8.556540553E-01 
         8 -1.524276490E-02  1.069101094E-01 -2.376908005E-02  8.661283398E+04  1.589840934E+02  3.325536180E+02  2.754014869E+02  2.415033054E+02  8.547782488E-01 
         9 -1.353040875E-02  1.074492491E-01 -2.136449246E-02  8.638701318E+04  1.601321387E+02  3.324309168E+02  2.751983423E+02  2.427770710E+02  8.535870332E-01 
        10 -1.175719847E-02  1.079385502E-01 -1.899452623E-02  8.616252576E+04  1.614309046E+02  3.323111587E+02  2.750000753E+02  2.439198291E+02  8.511207737E-01 
        11 -9.920451205E-03  1.084473482E-01 -1.667649769E-02  8.607719589E+04  1.625159248E+02  3.322703317E+02  2.749324760E+02  2.446057134E+02  8.482196212E-01 
        12 -8.053093039E-03  1.089314126E-01 -1.437870322E-02  8.619700604E+04  1.631307673E+02  3.323344979E+02  2.750387149E+02  2.445613130E+02  8.453243198E-01 
        13 -6.139911673E-03  1.093816015E-01 -1.211111235E-02  8.662043823E+04  1.628335924E+02  3.325584269E+02  2.754094276E+02  2.434357696E+02  8.435277827E-01 
        14 -4.213714023E-03  1.098625599E-01 -9.853315987E-03  8.750983398E+04  1.606446352E+02  3.330275364E+02  2.761870613E+02  2.406196976E+02  8.463260233E-01 
        15 -2.267252226E-03  1.102821410E-01 -7.616721013E-03  8.853165527E+04  1.566183290E+02  3.335600433E+02  2.770711021E+02  2.372169571E+02  8.575641289E-01 
        16 -3.058463972E-04  1.106716081E-01 -5.380345181E-03  8.942774414E+04  1.498054447E+02  3.340330925E+02  2.778576241E+02  2.341788707E+02  8.855595887E-01 
        17  1.649896870E-03  1.110991589E-01 -3.144821902E-03  8.755388550E+04  1.470905616E+02  3.329734588E+02  2.760993755E+02  2.432586374E+02  9.327242840E-01 
        18  3.605378217E-03  1.114680886E-01 -8.997268064E-04  7.570608459E+04  1.750000935E+02  3.263221946E+02  2.651784649E+02  2.855226841E+02  9.415156674E-01 
        19  5.548952344E-03  1.118349081E-01  1.356589372E-03  6.981210925E+04  2.076253247E+02  3.228372531E+02  2.595467787E+02  3.052867193E+02  8.450317844E-01 
        20  7.472030685E-03  1.121892539E-01  3.633809071E-03  7.279875458E+04  2.105949602E+02  3.247169697E+02  2.625801622E+02  2.959737336E+02  7.898601349E-01 
        21  9.366594022E-03  1.125505666E-01  5.932977735E-03  7.649938898E+04  2.085919411E+02  3.268331730E+02  2.660116274E+02  2.860983975E+02  7.617038786E-01 
        22  1.122147558E-02  1.129077905E-01  8.263617067E-03  7.876980493E+04  2.092683676E+02  3.281438498E+02  2.681481368E+02  2.786594677E+02  7.302575523E-01 
        23  1.303284284E-02  1.132507638E-01  1.062953057E-02  8.031935843E+04  2.114316372E+02  3.291170422E+02  2.697403074E+02  2.724093299E+02  6.963646805E-01 
        24  1.479928419E-02  1.136234762E-01  1.303021626E-02  8.155469998E+04  2.155367083E+02  3.298501762E+02  2.709431947E+02  2.679609369E+02  6.594185357E-01 
        25  1.649617427E-02  1.139938279E-01  1.547769530E-02  8.264745917E+04  2.203976862E+02  3.304164240E+02  2.718741040E+02  2.645705214E+02  6.225956962E-01 
        26  1.811807173E-02  1.143837002E-01  1.797032872E-02  8.340965918E+04  2.259200194E+02  3.307459326E+02  2.724161687E+02  2.626264920E+02  5.877097715E-01 
        27  1.968166241E-02  1.148013513E-01  2.049621310E-02  8.354850598E+04  2.329844551E+02  3.307246761E+02  2.723809903E+02  2.630445859E+02  5.533710662E-01 
        28  2.119101764E-02  1.152299366E-01  2.305322148E-02  8.304546559E+04  2.415146886E+02  3.304206103E+02  2.718804051E+02  2.654760546E+02  5.185718575E-01 
        29  2.266338778E-02  1.156643914E-01  2.563116057E-02  8.242388751E+04  2.505849723E+02  3.300081787E+02  2.712023252E+02  2.688404310E+02  4.844434503E-01 
        30  2.408077791E-02  1.161159634E-01  2.823658064E-02  8.190167493E+04  2.587619436E+02  3.297185686E+02  2.707263012E+02  2.715222902E+02  4.527812293E-01 
        31  2.544088325E-02  1.165921105E-01  3.086849856E-02  8.136067224E+04  2.666518090E+02  3.294404683E+02  2.702699213E+02  2.741566024E+02  4.227743978E-01 
        32  2.674433127E-02  1.170738851E-01  3.352942364E-02  8.077948938E+04  2.745165110E+02  3.291623473E+02  2.698137617E+02  2.769973178E+02  3.938869331E-01 
        33  2.797950643E-02  1.175445507E-01  3.622298897E-02  8.023101089E+04  2.823218534E+02  3.289197414E+02  2.694159920E+02  2.797912775E+02  3.651977418E-01 
        34  2.916313541E-02  1.180056499E-01  3.893937175E-02  7.993702647E+04  2.895138836E+02  3.288020647E+02  2.692232632E+02  2.817619890E+02  3.365706637E-01 
        35  3.031249539E-02  1.184785399E-01  4.167042727E-02  8.009940045E+04  2.953414226E+02  3.288880763E+02  2.693640763E+02  2.822597467E+02  3.094797411E-01 
        36  3.139929926E-02  1.189405785E-01  4.442941843E-02  8.041025751E+04  3.006874022E+02  3.290784500E+02  2.696760606E+02  2.822199822E+02  2.828078981E-01 
        37  3.242013936E-02  1.193808800E-01  4.721660669E-02  8.090980611E+04  3.058326884E+02  3.293220190E+02  2.700756400E+02  2.815157338E+02  2.542699684E-01 
        38  3.340677803E-02  1.198011670E-01  5.002067675E-02  8.207002145E+04  3.088088995E+02  3.299378572E+02  2.710869384E+02  2.783905388E+02  2.275063066E-01 
        39  3.430413654E-02  1.201853153E-01  5.285529857E-02  8.358078003E+04  3.105464792E+02  3.308199387E+02  2.725388784E+02  2.738748932E+02  2.016938599E-01 
        40  3.515433510E-02  1.205874318E-01  5.570324370E-02  8.544218457E+04  3.109941807E+02  3.318696346E+02  2.742715759E+02  2.681832962E+02  1.781864278E-01 
        41  3.592907297E-02  1.209644065E-01  5.857535950E-02  8.760422827E+04  3.099570889E+02  3.330526905E+02  2.762309942E+02  2.614603362E+02  1.587852444E-01 
        42  3.664355424E-02  1.213334730E-01  6.146049591E-02  8.994976477E+04  3.074769602E+02  3.342641468E+02  2.782442331E+02  2.541271815E+02  1.452505297E-01 
        43  3.727845098E-02  1.217084379E-01  6.437276718E-02  9.223260596E+04  3.040969324E+02  3.354311209E+02  2.801900263E+02  2.470360336E+02  1.382719800E-01 
        44  3.781448665E-02  1.220744111E-01  6.730672953E-02  9.414832593E+04  3.004676495E+02  3.364609699E+02  2.819126873E+02  2.410198002E+02  1.376583609E-01 
        45  3.826762164E-02  1.224563704E-01  7.025293559E-02  9.548863312E+04  2.974917929E+02  3.372264917E+02  2.831963801E+02  2.370050026E+02  1.418270294E-01 
        46  3.856443464E-02  1.228195695E-01  7.317567491E-02  9.627548047E+04  2.956546326E+02  3.377134399E+02  2.840148468E+02  2.349276276E+02  1.471868679E-01 
        47  3.882754171E-02  1.231963568E-01  7.616928387E-02  9.666326868E+04  2.935605395E+02  3.383921742E+02  2.851585872E+02  2.325386546E+02  1.532079278E-01 
        48  3.896508106E-02  1.235573809E-01  7.913505459E-02  9.681196875E+04  2.897047386E+02  3.393580399E+02  2.867989807E+02  2.266915817E+02  1.580419615E-01 
        49  3.903512947E-02  1.239238609E-01  8.213137167E-02  9.684333154E+04  2.809566250E+02  3.411885719E+02  2.899257176E+02  2.122333593E+02  1.677577626E-01 
        50  3.900153017E-02  1.243001337E-01  8.510504302E-02  9.670362247E+04  2.656285118E+02  3.443029896E+02  2.952605290E+02  1.848345516E+02  1.772937709E-01 
        51  3.889299026E-02  1.246700891E-01  8.806950082E-02  9.652209467E+04  2.487895868E+02  3.479866731E+02  3.016124957E+02  1.421818299E+02  1.618050012E-01 
        52  3.870303970E-02  1.250405990E-01  9.105247242E-02  9.654611499E+04  2.399676871E+02  3.508078680E+02  3.064927130E+02  1.029962614E+02  7.212626003E-02 
        53  3.847530202E-02  1.253810613E-01  9.402032493E-02  9.684608685E+04  2.368919324E+02  3.523284338E+02  3.091503146E+02  6.938608994E+01 -1.525640801E-01 
        54  3.809583015E-02  1.257752167E-01  9.695318516E-02  9.813042480E+04  2.383239517E+02  3.530184517E+02  3.103504753E+02  4.725164604E+01 -9.386980832E-01 
        55  3.767199372E-02  1.261489404E-01  9.992435767E-02  9.984365967E+04  2.454367971E+02  3.528157673E+02  3.099866772E+02  4.243469107E+01 -1.276121922E+00 
        56  3.723780727E-02  1.265196365E-01  1.028569506E-01  1.022973271E+05  2.427291715E+02  3.521434706E+02  3.088080969E+02  5.688543984E+01 -6.308296439E-01 
        57  3.672955052E-02  1.269046997E-01  1.057947981E-01  1.049813909E+05  2.367750003E+02  3.507663107E+02  3.064039021E+02  9.653308606E+01  2.483854105E-02 
        58  3.615520807E-02  1.273091289E-01  1.087154776E-01  1.068402278E+05  2.436373897E+02  3.483536158E+02  3.022087898E+02  1.425815134E+02  1.692537023E-01 
        59  3.556812424E-02  1.277144368E-01  1.116309472E-01  1.076516811E+05  2.552527719E+02  3.458801920E+02  2.979264350E+02  1.747503039E+02  1.973497506E-01 
        60  3.495651588E-02  1.281329458E-01  1.145394580E-01  1.079012092E+05  2.631929169E+02  3.441917896E+02  2.950178518E+02  1.899211583E+02  1.978730396E-01 
        61  3.433795015E-02  1.285471243E-01  1.174457346E-01  1.079385920E+05  2.670519946E+02  3.433475690E+02  2.935697336E+02  1.956812649E+02  1.950837255E-01 
        62  3.376061330E-02  1.289460490E-01  1.203607660E-01  1.079482043E+05  2.691516023E+02  3.430745904E+02  2.931028907E+02  1.978000205E+02  1.911227920E-01 
        63  3.331803132E-02  1.293309423E-01  1.232882868E-01  1.079626565E+05  2.708588716E+02  3.430408857E+02  2.930452752E+02  1.990650889E+02  1.869478687E-01 
        64  3.310586596E-02  1.296649637E-01  1.262581306E-01  1.079118919E+05  2.722763572E+02  3.430533214E+02  2.930665123E+02  2.000678403E+02  1.837243137E-01 
        65  3.306639982E-02  1.299493947E-01  1.292495641E-01  1.078175775E+05  2.734100125E+02  3.430559459E+02  2.930710751E+02  2.009818172E+02  1.819362042E-01 
        66  3.322486525E-02  1.302097713E-01  1.322380794E-01  1.076693115E+05  2.744591424E+02  3.430063127E+02  2.929862028E+02  2.021121343E+02  1.816224970E-01 
        67  3.356462385E-02  1.304573038E-01  1.352130229E-01  1.075112230E+05  2.754367688E+02  3.429449695E+02  2.928814493E+02  2.033864597E+02  1.826010824E-01 
        68  3.400410102E-02  1.306751199E-01  1.381765647E-01  1.073326812E+05  2.765017619E+02  3.428658748E+02  2.927463295E+02  2.048934197E+02  1.837751155E-01 
        69  3.451963359E-02  1.308741206E-01  1.411278790E-01  1.070806428E+05  2.776307194E+02  3.427524252E+02  2.925526295E+02  2.065374115E+02  1.851079101E-01 
        70  3.508991352E-02  1.310576265E-01  1.440660380E-01  1.067389255E+05  2.787987320E+02  3.426022816E+02  2.922964296E+02  2.081988852E+02  1.862951317E-01 
        71  3.570211579E-02  1.312503676E-01  1.470000000E-01  1.063189404E+05  2.801549683E+02  3.424148064E+02  2.919769249E+02  2.102072563E+02  1.873335205E-01 
        72 -2.843361623E-02  1.708417341E-01 -4.258217492E-02  8.204350513E+04  1.836031170E+02  3.299915619E+02  2.711743059E+02  3.441336784E+02  1.007918522E+00 
        73 -2.838826984E-02  1.709653765E-01 -3.916427879E-02  8.202786322E+04  1.844233537E+02  3.299351640E+02  2.710816658E+02  3.449066806E+02  1.006539068E+00 
        74 -2.835908450E-02  1.711140563E-01 -3.574649433E-02  8.236566919E+04  1.837284504E+02  3.301698809E+02  2.714675426E+02  3.437568674E+02  1.006824173E+00 
        75 -2.838361088E-02  1.712589164E-01 -3.232950605E-02  8.300330322E+04  1.826960769E+02  3.305484819E+02  2.720905380E+02  3.421172838E+02  1.007459152E+00 
        76 -2.841360827E-02  1.714319125E-01 -2.891476756E-02  8.373423206E+04  1.817898173E+02  3.309240236E+02  2.727090759E+02  3.407634792E+02  1.008191608E+00 
        77 -2.833774301E-02  1.716334782E-01 -2.549995819E-02  8.425172424E+04  1.805941424E+02  3.312397614E+02  2.732296308E+02  3.389841628E+02  1.009209359E+00 
        78 -2.791452343E-02  1.719215161E-01 -2.212016887E-02  8.447020361E+04  1.799508896E+02  3.313534737E+02  2.734173183E+02  3.388745079E+02  1.011267859E+00 
        79 -2.700703325E-02  1.722886754E-01 -1.884820631E-02  8.427836377E+04  1.797722211E+02  3.312336502E+02  2.732196779E+02  3.398132801E+02  1.013621416E+00 
        80 -2.544395246E-02  1.727209334E-01 -1.584518523E-02  8.320655902E+04  1.812094598E+02  3.306263440E+02  2.722191472E+02  3.425932279E+02  1.013672168E+00 
        81 -2.351536464E-02  1.732363399E-01 -1.306823492E-02  8.128061882E+04  1.848354826E+02  3.295366693E+02  2.704284227E+02  3.487154914E+02  1.012395515E+00 
        82 -2.134527601E-02  1.737374909E-01 -1.047435973E-02  7.868953523E+04  1.909790733E+02  3.279819888E+02  2.678832876E+02  3.567329648E+02  1.006638888E+00 
        83 -1.897326710E-02  1.742189522E-01 -8.035177519E-03  7.555629825E+04  1.992106071E+02  3.261111199E+02  2.648364803E+02  3.658800355E+02  9.968110602E-01 
        84 -1.652827274E-02  1.746780172E-01 -5.688541800E-03  7.303793781E+04  2.068840158E+02  3.245426826E+02  2.622942097E+02  3.727306194E+02  9.847466489E-01 
        85 -1.397929867E-02  1.751251779E-01 -3.446989688E-03  7.234568054E+04  2.104403205E+02  3.240979190E+02  2.615759854E+02  3.741417451E+02  9.754204862E-01 
        86 -1.139011487E-02  1.755573757E-01 -1.256774906E-03  7.404847852E+04  2.098305142E+02  3.250695968E+02  2.631493640E+02  3.705308599E+02  9.701457322E-01 
        87 -8.734274343E-03  1.759085237E-01  8.667805443E-04  7.933186127E+04  2.037386515E+02  3.282421162E+02  2.683138731E+02  3.572113619E+02  9.647482978E-01 
        88 -6.073383534E-03  1.762548475E-01  2.984781313E-03  8.859431189E+04  1.909363140E+02  3.335612390E+02  2.770802064E+02  3.313187170E+02  9.637502921E-01 
        89 -3.359730182E-03  1.765819110E-01  5.053045394E-03  9.823644910E+04  1.751105282E+02  3.383804109E+02  2.851401004E+02  3.035004337E+02  9.814324263E-01 
        90 -6.741955509E-04  1.768270807E-01  7.130208361E-03  9.800272468E+04  1.629092838E+02  3.383817911E+02  2.851413736E+02  3.038493564E+02  1.025470881E+00 
        91  2.027043660E-03  1.770783858E-01  9.208570588E-03  7.914821745E+04  1.934281833E+02  3.280757286E+02  2.680414563E+02  3.589504764E+02  1.002720642E+00 
        92  4.731686997E-03  1.772422585E-01  1.127155269E-02  7.250408284E+04  2.143856484E+02  3.242528124E+02  2.618278117E+02  3.777319569E+02  9.688668948E-01 
        93  7.454465044E-03  1.773874983E-01  1.334309669E-02  7.306786186E+04  2.101136180E+02  3.245476086E+02  2.623051739E+02  3.749014908E+02  9.777903024E-01 
        94  1.015989937E-02  1.775222933E-01  1.545596277E-02  7.056679681E+04  2.179555467E+02  3.228848035E+02  2.596278027E+02  3.815249659E+02  9.651380411E-01 
        95  1.284858280E-02  1.775661421E-01  1.756817794E-02  6.717527139E+04  2.290351073E+02  3.206112962E+02  2.559847219E+02  3.923857081E+02  9.510623491E-01 
        96  1.551966693E-02  1.776138061E-01  1.970369132E-02  6.424521063E+04  2.371663306E+02  3.186878896E+02  2.529214742E+02  4.004654832E+02  9.416477988E-01 
        97  1.817410325E-02  1.776258069E-01  2.186017323E-02  6.184288464E+04  2.447865293E+02  3.170293102E+02  2.502947655E+02  4.072638617E+02  9.316329518E-01 
        98  2.080993586E-02  1.775631240E-01  2.403936301E-02  6.016621851E+04  2.522770867E+02  3.158244596E+02  2.483931484E+02  4.126843700E+02  9.190558065E-01 
        99  2.341570779E-02  1.774969016E-01  2.625394818E-02  5.976809705E+04  2.575775013E+02  3.155817499E+02  2.480111318E+02  4.146542664E+02  9.057855681E-01 
       100  2.600295182E-02  1.773818036E-01  2.848806157E-02  6.158354932E+04  2.588345661E+02  3.170068541E+02  2.502715836E+02  4.100427380E+02  8.910421692E-01 
       101  2.856627515E-02  1.771883875E-01  3.074502562E-02  6.700308740E+04  2.539649029E+02  3.208952084E+02  2.564914188E+02  3.942911606E+02  8.733006008E-01 
       102  3.110662233E-02  1.769811535E-01  3.302644514E-02  7.518339893E+04  2.459454222E+02  3.262320929E+02  2.650961008E+02  3.707948227E+02  8.518914673E-01 
       103  3.362247542E-02  1.767159818E-01  3.532849163E-02  8.163934143E+04  2.430585675E+02  3.299985781E+02  2.712057838E+02  3.531083508E+02  8.268805332E-01 
       104  3.610895472E-02  1.763647845E-01  3.765120331E-02  8.260239453E+04  2.485918939E+02  3.303314714E+02  2.717387938E+02  3.516292167E+02  8.052982520E-01 
       105  3.856497337E-02  1.759966372E-01  4.000321012E-02  8.002406949E+04  2.563940268E+02  3.289673892E+02  2.694974631E+02  3.586601986E+02  7.919817115E-01 
       106  4.103059304E-02  1.755360248E-01  4.234569910E-02  7.808997143E+04  2.628537571E+02  3.280418707E+02  2.679799782E+02  3.631779419E+02  7.785850413E-01 
       107  4.340106546E-02  1.750377176E-01  4.474435622E-02  7.913730771E+04  2.666453248E+02  3.285825006E+02  2.688663298E+02  3.613580853E+02  7.623678150E-01 
       108  4.575540032E-02  1.745445103E-01  4.717695363E-02  8.345580554E+04  2.653592470E+02  3.309201531E+02  2.727127187E+02  3.500354261E+02  7.458226709E-01 
       109  4.807037784E-02  1.739953488E-01  4.963532790E-02  8.967096973E+04  2.606032171E+02  3.342303705E+02  2.781973658E+02  3.329065027E+02  7.317177467E-01 
       110  5.034733117E-02  1.734133857E-01  5.212084081E-02  9.509562305E+04  2.576590881E+02  3.369779339E+02  2.827830830E+02  3.178986969E+02  7.166801170E-01 
       111  5.258765486E-02  1.728405975E-01  5.464144749E-02  9.851796094E+04  2.581310444E+02  3.386913700E+02  2.856630554E+02  3.093646603E+02  7.013015896E-01 
       112  5.479076840E-02  1.722430532E-01  5.718902978E-02  1.011833535E+05  2.591874409E+02  3.400502834E+02  2.879598227E+02  3.032310858E+02  6.880063284E-01 
       113  5.694737683E-02  1.716020731E-01  5.976586917E-02  1.042884196E+05  2.587359495E+02  3.416085474E+02  2.906049504E+02  2.948611844E+02  6.772166006E-01 
       114  5.911848447E-02  1.709340834E-01  6.233872565E-02  1.077648928E+05  2.569014341E+02  3.432897373E+02  2.934718143E+02  2.854352503E+02  6.701973846E-01 
       115  6.119351897E-02  1.703313828E-01  6.496775561E-02  1.108342742E+05  2.554575634E+02  3.446438675E+02  2.957913113E+02  2.770698738E+02  6.646816954E-01 
       116  6.319798910E-02  1.696485115E-01  6.765543605E-02  1.134563179E+05  2.543353386E+02  3.456993370E+02  2.976053510E+02  2.700716815E+02  6.599426866E-01 
       117  6.520189851E-02  1.689621155E-01  7.034628384E-02  1.154786094E+05  2.534395685E+02  3.465941439E+02  2.991477652E+02  2.647951603E+02  6.570422500E-01 
       118  6.717992039E-02  1.682884043E-01  7.305807409E-02  1.172336323E+05  2.520995073E+02  3.473774624E+02  3.005014257E+02  2.600713243E+02  6.569590587E-01 
       119  6.910755662E-02  1.675987334E-01  7.579818779E-02  1.186629976E+05  2.508838654E+02  3.479540431E+02  3.014997196E+02  2.563184714E+02  6.580255241E-01 
       120  7.101404689E-02  1.668389198E-01  7.852135391E-02  1.196643591E+05  2.477308489E+02  3.484199324E+02  3.023077962E+02  2.534532006E+02  6.677629007E-01 
