nodenumber     x-coordinate     y-coordinate     z-coordinate         pressure velocity-magnitude      sound-speed      temperature rel-velocity-magnitude relative-velocity-angle 
         1 -2.216901913E-02  1.039879580E-01 -4.300600202E-02  8.756613901E+04  1.536284846E+02  3.330794213E+02  2.762730518E+02  2.355037634E+02  8.602331978E-01 
         2 -2.197401757E-02  1.042260031E-01 -4.002397295E-02  8.747836679E+04  1.544117967E+02  3.330109220E+02  2.761594940E+02  2.364552369E+02  8.595104285E-01 
         3 -2.150271627E-02  1.045375264E-01 -3.708169353E-02  8.738876178E+04  1.550464604E+02  3.329555063E+02  2.760675385E+02  2.370232775E+02  8.582757236E-01 
         4 -2.072290556E-02  1.049359494E-01 -3.421635317E-02  8.726918640E+04  1.557193148E+02  3.328935833E+02  2.759648833E+02  2.376236000E+02  8.571055476E-01 
         5 -1.964621854E-02  1.053757771E-01 -3.145501365E-02  8.711883105E+04  1.564460402E+02  3.328192234E+02  2.758415742E+02  2.385955000E+02  8.569645397E-01 
         6 -1.833909717E-02  1.058829391E-01 -2.880182754E-02  8.695842798E+04  1.572237649E+02  3.327384510E+02  2.757077746E+02  2.394173164E+02  8.561209235E-01 
         7 -1.686396899E-02  1.064019756E-01 -2.624136390E-02  8.676466992E+04  1.580943036E+02  3.326302824E+02  2.755285864E+02  2.403298893E+02  8.550853580E-01 
         8 -1.524276490E-02  1.069101094E-01 -2.376908005E-02  8.657404724E+04  1.590735140E+02  3.325253158E+02  2.753546925E+02  2.415510674E+02  8.544965014E-01 
         9 -1.353040875E-02  1.074492491E-01 -2.136449246E-02  8.634526672E+04  1.602146330E+02  3.324081802E+02  2.751607039E+02  2.428888190E+02  8.534943936E-01 
        10 -1.175719847E-02  1.079385502E-01 -1.899452623E-02  8.614897864E+04  1.615593280E+02  3.322983892E+02  2.749789596E+02  2.441013744E+02  8.510000361E-01 
        11 -9.920451205E-03  1.084473482E-01 -1.667649769E-02  8.603136908E+04  1.625996665E+02  3.322548481E+02  2.749069235E+02  2.448600528E+02  8.486920320E-01 
        12 -8.053093039E-03  1.089314126E-01 -1.437870322E-02  8.621235724E+04  1.634709917E+02  3.323140372E+02  2.750048956E+02  2.445279858E+02  8.432734627E-01 
        13 -6.139911673E-03  1.093816015E-01 -1.211111235E-02  8.672833887E+04  1.626478825E+02  3.326119566E+02  2.754981036E+02  2.431129608E+02  8.434620053E-01 
        14 -4.213714023E-03  1.098625599E-01 -9.853315987E-03  8.757324463E+04  1.604254160E+02  3.330688133E+02  2.762555809E+02  2.404953098E+02  8.472547382E-01 
        15 -2.267252226E-03  1.102821410E-01 -7.616721013E-03  8.852910449E+04  1.564188013E+02  3.335859871E+02  2.771142960E+02  2.370910330E+02  8.582631089E-01 
        16 -3.058463972E-04  1.106716081E-01 -5.380345181E-03  8.939626733E+04  1.501212111E+02  3.339882603E+02  2.777831230E+02  2.344600258E+02  8.848536834E-01 
        17  1.649896870E-03  1.110991589E-01 -3.144821902E-03  8.731589807E+04  1.468476790E+02  3.328591237E+02  2.759096956E+02  2.430678217E+02  9.330528285E-01 
        18  3.605378217E-03  1.114680886E-01 -8.997268064E-04  7.567314844E+04  1.761695771E+02  3.262128000E+02  2.650014868E+02  2.872132001E+02  9.424266331E-01 
        19  5.548952344E-03  1.118349081E-01  1.356589372E-03  6.992025940E+04  2.076568530E+02  3.229371145E+02  2.597062328E+02  3.064905331E+02  8.495720294E-01 
        20  7.472030685E-03  1.121892539E-01  3.633809071E-03  7.294102164E+04  2.129174417E+02  3.246572026E+02  2.624824375E+02  2.987422448E+02  7.892419910E-01 
        21  9.366594022E-03  1.125505666E-01  5.932977735E-03  7.664195667E+04  2.086320877E+02  3.269714694E+02  2.662368033E+02  2.840764441E+02  7.533926917E-01 
        22  1.122147558E-02  1.129077905E-01  8.263617067E-03  7.901213621E+04  2.093425888E+02  3.283349334E+02  2.684607428E+02  2.778530872E+02  7.265758719E-01 
        23  1.303284284E-02  1.132507638E-01  1.062953057E-02  8.061611330E+04  2.113816491E+02  3.293154441E+02  2.700663313E+02  2.724382207E+02  6.968005443E-01 
        24  1.479928419E-02  1.136234762E-01  1.303021626E-02  8.177878728E+04  2.155015239E+02  3.299491928E+02  2.711066223E+02  2.682616489E+02  6.610148887E-01 
        25  1.649617427E-02  1.139938279E-01  1.547769530E-02  8.275653802E+04  2.206731853E+02  3.304177635E+02  2.718769414E+02  2.653704498E+02  6.246592463E-01 
        26  1.811807173E-02  1.143837002E-01  1.797032872E-02  8.344177051E+04  2.261088805E+02  3.307509451E+02  2.724248772E+02  2.633267570E+02  5.899274843E-01 
        27  1.968166241E-02  1.148013513E-01  2.049621310E-02  8.355897968E+04  2.327624128E+02  3.307895753E+02  2.724885254E+02  2.632250254E+02  5.555600836E-01 
        28  2.119101764E-02  1.152299366E-01  2.305322148E-02  8.306485460E+04  2.414517566E+02  3.304631329E+02  2.719510679E+02  2.661359372E+02  5.216740215E-01 
        29  2.266338778E-02  1.156643914E-01  2.563116057E-02  8.242900671E+04  2.504863015E+02  3.300552933E+02  2.712801856E+02  2.700481398E+02  4.895612749E-01 
        30  2.408077791E-02  1.161159634E-01  2.823658064E-02  8.186026764E+04  2.585162725E+02  3.297976756E+02  2.708566818E+02  2.728162146E+02  4.588229819E-01 
        31  2.544088325E-02  1.165921105E-01  3.086849856E-02  8.129852307E+04  2.666136634E+02  3.295092473E+02  2.703833036E+02  2.751003098E+02  4.264405333E-01 
        32  2.674433127E-02  1.170738851E-01  3.352942364E-02  8.072962317E+04  2.750432482E+02  3.291607695E+02  2.698117666E+02  2.776835656E+02  3.935506227E-01 
        33  2.797950643E-02  1.175445507E-01  3.622298897E-02  8.019523471E+04  2.833526639E+02  3.288276844E+02  2.692658662E+02  2.804287676E+02  3.619017440E-01 
        34  2.916313541E-02  1.180056499E-01  3.893937175E-02  7.988418895E+04  2.906587304E+02  3.286544200E+02  2.689822739E+02  2.823244538E+02  3.324873546E-01 
        35  3.031249539E-02  1.184785399E-01  4.167042727E-02  8.001125403E+04  2.963012776E+02  3.287511024E+02  2.691403333E+02  2.826613594E+02  3.058331464E-01 
        36  3.139929926E-02  1.189405785E-01  4.442941843E-02  8.029621069E+04  3.015620455E+02  3.289460069E+02  2.694595061E+02  2.826456023E+02  2.797300887E-01 
        37  3.242013936E-02  1.193808800E-01  4.721660669E-02  8.080672038E+04  3.065859370E+02  3.292759169E+02  2.700004741E+02  2.818889524E+02  2.516279264E-01 
        38  3.340677803E-02  1.198011670E-01  5.002067675E-02  8.204469522E+04  3.093695170E+02  3.299951873E+02  2.711814438E+02  2.786448078E+02  2.254625483E-01 
        39  3.430413654E-02  1.201853153E-01  5.285529857E-02  8.370699487E+04  3.107323303E+02  3.309138947E+02  2.726939211E+02  2.737736883E+02  2.002855362E-01 
        40  3.515433510E-02  1.205874318E-01  5.570324370E-02  8.579331299E+04  3.106036224E+02  3.320455532E+02  2.745630035E+02  2.674210205E+02  1.772990953E-01 
        41  3.592907297E-02  1.209644065E-01  5.857535950E-02  8.818194287E+04  3.088295999E+02  3.333560066E+02  2.767351561E+02  2.600255976E+02  1.593604358E-01 
        42  3.664355424E-02  1.213334730E-01  6.146049591E-02  9.066250403E+04  3.056601357E+02  3.346570802E+02  2.788993077E+02  2.522310228E+02  1.480069561E-01 
        43  3.727845098E-02  1.217084379E-01  6.437276718E-02  9.294960327E+04  3.019352245E+02  3.357846470E+02  2.807807741E+02  2.450250845E+02  1.427255059E-01 
        44  3.781448665E-02  1.220744111E-01  6.730672953E-02  9.476765503E+04  2.985157461E+02  3.366825609E+02  2.822837915E+02  2.394325242E+02  1.428154144E-01 
        45  3.826762164E-02  1.224563704E-01  7.025293559E-02  9.597796033E+04  2.958024204E+02  3.373637936E+02  2.834268777E+02  2.357556947E+02  1.470004898E-01 
        46  3.856443464E-02  1.228195695E-01  7.317567491E-02  9.663562891E+04  2.939511566E+02  3.378571930E+02  2.842566376E+02  2.337754059E+02  1.529595368E-01 
        47  3.882754171E-02  1.231963568E-01  7.616928387E-02  9.689556708E+04  2.925583680E+02  3.384742805E+02  2.852973391E+02  2.321335169E+02  1.580871159E-01 
        48  3.896508106E-02  1.235573809E-01  7.913505459E-02  9.686054102E+04  2.890120468E+02  3.394766922E+02  2.870028954E+02  2.260108490E+02  1.611107327E-01 
        49  3.903512947E-02  1.239238609E-01  8.213137167E-02  9.662668091E+04  2.795710578E+02  3.414547153E+02  2.903817148E+02  2.095572714E+02  1.695391275E-01 
        50  3.900153017E-02  1.243001337E-01  8.510504302E-02  9.628314206E+04  2.639920895E+02  3.445422381E+02  2.956703461E+02  1.802754595E+02  1.756796995E-01 
        51  3.889299026E-02  1.246700891E-01  8.806950082E-02  9.607503900E+04  2.472443435E+02  3.480299151E+02  3.016821332E+02  1.359751415E+02  1.507469830E-01 
        52  3.870303970E-02  1.250405990E-01  9.105247242E-02  9.618742627E+04  2.382928495E+02  3.509089231E+02  3.066647077E+02  9.234362495E+01  1.698263083E-02 
        53  3.847530202E-02  1.253810613E-01  9.402032493E-02  9.702036725E+04  2.403733907E+02  3.522579771E+02  3.090220096E+02  5.663750741E+01 -5.358059579E-01 
        54  3.809583015E-02  1.257752167E-01  9.695318516E-02  9.800666309E+04  2.333060722E+02  3.536663666E+02  3.114855995E+02  3.667344165E+01 -1.460959345E+00 
        55  3.767199372E-02  1.261489404E-01  9.992435767E-02  9.839562817E+04  2.420604467E+02  3.524761791E+02  3.093917341E+02  4.465471995E+01 -1.483137753E+00 
        56  3.723780727E-02  1.265196365E-01  1.028569506E-01  1.001877258E+05  2.440495620E+02  3.510472381E+02  3.068875739E+02  6.203118840E+01 -1.132010126E+00 
        57  3.672955052E-02  1.269046997E-01  1.057947981E-01  1.030618784E+05  2.312330234E+02  3.501703305E+02  3.053567257E+02  9.715622401E+01 -1.873056544E-02 
        58  3.615520807E-02  1.273091289E-01  1.087154776E-01  1.060733931E+05  2.344900146E+02  3.484957514E+02  3.024465208E+02  1.403956599E+02  2.244616337E-01 
        59  3.556812424E-02  1.277144368E-01  1.116309472E-01  1.074972026E+05  2.510478134E+02  3.464399102E+02  2.988898261E+02  1.738148099E+02  2.212873276E-01 
        60  3.495651588E-02  1.281329458E-01  1.145394580E-01  1.076802917E+05  2.633025260E+02  3.444394765E+02  2.954433951E+02  1.929512296E+02  2.084939322E-01 
        61  3.433795015E-02  1.285471243E-01  1.174457346E-01  1.078251262E+05  2.653345783E+02  3.434882770E+02  2.938112216E+02  1.965105686E+02  2.093449540E-01 
        62  3.376061330E-02  1.289460490E-01  1.203607660E-01  1.080681119E+05  2.638686469E+02  3.433612983E+02  2.935933456E+02  1.927593946E+02  2.067414697E-01 
        63  3.331803132E-02  1.293309423E-01  1.232882868E-01  1.082299477E+05  2.656157773E+02  3.432552724E+02  2.934119705E+02  1.938755856E+02  2.014217609E-01 
        64  3.310586596E-02  1.296649637E-01  1.262581306E-01  1.081954412E+05  2.693273141E+02  3.430556197E+02  2.930707543E+02  1.976228281E+02  1.934059741E-01 
        65  3.306639982E-02  1.299493947E-01  1.292495641E-01  1.080092410E+05  2.721851348E+02  3.429363749E+02  2.928669686E+02  2.007834841E+02  1.889202451E-01 
        66  3.322486525E-02  1.302097713E-01  1.322380794E-01  1.077778836E+05  2.740220723E+02  3.428662791E+02  2.927472240E+02  2.028466362E+02  1.870975170E-01 
        67  3.356462385E-02  1.304573038E-01  1.352130229E-01  1.075500814E+05  2.754556223E+02  3.427879753E+02  2.926134786E+02  2.046180986E+02  1.870311276E-01 
        68  3.400410102E-02  1.306751199E-01  1.381765647E-01  1.073016278E+05  2.765115066E+02  3.427131324E+02  2.924857147E+02  2.059385200E+02  1.875517212E-01 
        69  3.451963359E-02  1.308741206E-01  1.411278790E-01  1.070280618E+05  2.775398326E+02  3.426258783E+02  2.923367007E+02  2.074477506E+02  1.889762310E-01 
        70  3.508991352E-02  1.310576265E-01  1.440660380E-01  1.067233981E+05  2.786243927E+02  3.425247498E+02  2.921641235E+02  2.089703374E+02  1.901392264E-01 
        71  3.570211579E-02  1.312503676E-01  1.470000000E-01  1.063060088E+05  2.799793015E+02  3.423643875E+02  2.918901482E+02  2.107697392E+02  1.904253680E-01 
        72 -2.843361623E-02  1.708417341E-01 -4.258217492E-02  8.206040332E+04  1.838477640E+02  3.299772797E+02  2.711509504E+02  3.443987226E+02  1.007634833E+00 
        73 -2.838826984E-02  1.709653765E-01 -3.916427879E-02  8.209945270E+04  1.843834734E+02  3.299668555E+02  2.711339793E+02  3.449358850E+02  1.006819304E+00 
        74 -2.835908450E-02  1.711140563E-01 -3.574649433E-02  8.235608844E+04  1.833777947E+02  3.301786292E+02  2.714825437E+02  3.433264184E+02  1.007481429E+00 
        75 -2.838361088E-02  1.712589164E-01 -3.232950605E-02  8.285902051E+04  1.830718160E+02  3.304312534E+02  2.718980408E+02  3.430227737E+02  1.008107956E+00 
        76 -2.841360827E-02  1.714319125E-01 -2.891476756E-02  8.342516113E+04  1.823458033E+02  3.307518225E+02  2.724255471E+02  3.414019408E+02  1.007652674E+00 
        77 -2.833774301E-02  1.716334782E-01 -2.549995819E-02  8.396185379E+04  1.805666701E+02  3.311080457E+02  2.730125990E+02  3.398766359E+02  1.010953009E+00 
        78 -2.791452343E-02  1.719215161E-01 -2.212016887E-02  8.430419971E+04  1.799928980E+02  3.312842236E+02  2.733032293E+02  3.387521305E+02  1.011051230E+00 
        79 -2.700703325E-02  1.722886754E-01 -1.884820631E-02  8.422767651E+04  1.803501830E+02  3.311477947E+02  2.730783510E+02  3.408207502E+02  1.013514485E+00 
        80 -2.544395246E-02  1.727209334E-01 -1.584518523E-02  8.328741486E+04  1.809564979E+02  3.306969330E+02  2.723355300E+02  3.427690694E+02  1.014980156E+00 
        81 -2.351536464E-02  1.732363399E-01 -1.306823492E-02  8.138201616E+04  1.848567699E+02  3.295459266E+02  2.704432706E+02  3.483567217E+02  1.011633846E+00 
        82 -2.134527601E-02  1.737374909E-01 -1.047435973E-02  7.868985597E+04  1.912984928E+02  3.279396483E+02  2.678143323E+02  3.558980916E+02  1.003975898E+00 
        83 -1.897326710E-02  1.742189522E-01 -8.035177519E-03  7.585627185E+04  1.984996102E+02  3.262933835E+02  2.651321036E+02  3.646981357E+02  9.967363370E-01 
        84 -1.652827274E-02  1.746780172E-01 -5.688541800E-03  7.364963489E+04  2.054807441E+02  3.248880892E+02  2.628529480E+02  3.719866099E+02  9.879362239E-01 
        85 -1.397929867E-02  1.751251779E-01 -3.446989688E-03  7.273974023E+04  2.105256166E+02  3.242734261E+02  2.618594942E+02  3.735910301E+02  9.738922771E-01 
        86 -1.139011487E-02  1.755573757E-01 -1.256774906E-03  7.361560376E+04  2.099985578E+02  3.249344430E+02  2.629291029E+02  3.716070323E+02  9.716818966E-01 
        87 -8.734274343E-03  1.759085237E-01  8.667805443E-04  7.862680347E+04  2.036541568E+02  3.280085657E+02  2.679347820E+02  3.579921348E+02  9.667557329E-01 
        88 -6.073383534E-03  1.762548475E-01  2.984781313E-03  8.840009882E+04  1.907218040E+02  3.334294794E+02  2.768643534E+02  3.310052416E+02  9.646944478E-01 
        89 -3.359730182E-03  1.765819110E-01  5.053045394E-03  9.811812195E+04  1.780106049E+02  3.381297550E+02  2.847172377E+02  3.055676904E+02  9.736802587E-01 
        90 -6.741955509E-04  1.768270807E-01  7.130208361E-03  9.736758963E+04  1.678425252E+02  3.378315111E+02  2.842171493E+02  3.141651057E+02  1.021007571E+00 
        91  2.027043660E-03  1.770783858E-01  9.208570588E-03  7.868694923E+04  1.948566144E+02  3.277240143E+02  2.674691514E+02  3.608787899E+02  1.002511712E+00 
        92  4.731686997E-03  1.772422585E-01  1.127155269E-02  7.312304993E+04  2.140511707E+02  3.245606930E+02  2.623248991E+02  3.771640806E+02  9.691936972E-01 
        93  7.454465044E-03  1.773874983E-01  1.334309669E-02  7.359403378E+04  2.115185165E+02  3.246365740E+02  2.624477199E+02  3.748296458E+02  9.727012920E-01 
        94  1.015989937E-02  1.775222933E-01  1.545596277E-02  7.093609011E+04  2.180210148E+02  3.230858196E+02  2.599506228E+02  3.816682652E+02  9.653774301E-01 
        95  1.284858280E-02  1.775661421E-01  1.756817794E-02  6.745336667E+04  2.284827731E+02  3.208339678E+02  2.563407288E+02  3.926153946E+02  9.537597131E-01 
        96  1.551966693E-02  1.776138061E-01  1.970369132E-02  6.431591687E+04  2.370478575E+02  3.187183743E+02  2.529710019E+02  4.006559515E+02  9.427172812E-01 
        97  1.817410325E-02  1.776258069E-01  2.186017323E-02  6.172960120E+04  2.455776856E+02  3.168575931E+02  2.500243878E+02  4.088426085E+02  9.327302733E-01 
        98  2.080993586E-02  1.775631240E-01  2.403936301E-02  5.988762988E+04  2.532336955E+02  3.155945215E+02  2.480326352E+02  4.144892120E+02  9.199477341E-01 
        99  2.341570779E-02  1.774969016E-01  2.625394818E-02  5.930546240E+04  2.586330261E+02  3.152520943E+02  2.474942541E+02  4.159994745E+02  9.055998921E-01 
       100  2.600295182E-02  1.773818036E-01  2.848806157E-02  6.107048242E+04  2.603282852E+02  3.165288162E+02  2.495165539E+02  4.116131334E+02  8.901224732E-01 
       101  2.856627515E-02  1.771883875E-01  3.074502562E-02  6.660508594E+04  2.554736767E+02  3.204470310E+02  2.557811432E+02  3.951470451E+02  8.711214699E-01 
       102  3.110662233E-02  1.769811535E-01  3.302644514E-02  7.505954175E+04  2.469792995E+02  3.259901791E+02  2.647120695E+02  3.705981903E+02  8.491327222E-01 
       103  3.362247542E-02  1.767159818E-01  3.532849163E-02  8.190848621E+04  2.427896767E+02  3.301156950E+02  2.714022646E+02  3.516539984E+02  8.257709909E-01 
       104  3.610895472E-02  1.763647845E-01  3.765120331E-02  8.326065503E+04  2.464325752E+02  3.309823389E+02  2.728098145E+02  3.474175391E+02  8.056222498E-01 
       105  3.856497337E-02  1.759966372E-01  4.000321012E-02  8.062581467E+04  2.539672021E+02  3.297706279E+02  2.708157185E+02  3.534148011E+02  7.909674123E-01 
       106  4.103059304E-02  1.755360248E-01  4.234569910E-02  7.828287486E+04  2.623987883E+02  3.283469423E+02  2.684811696E+02  3.612355887E+02  7.768490902E-01 
       107  4.340106546E-02  1.750377176E-01  4.474435622E-02  7.881429408E+04  2.675565972E+02  3.284416206E+02  2.686364696E+02  3.616483459E+02  7.601219204E-01 
       108  4.575540032E-02  1.745445103E-01  4.717695363E-02  8.242971533E+04  2.674650233E+02  3.304480214E+02  2.719347789E+02  3.523638239E+02  7.431985587E-01 
       109  4.807037784E-02  1.739953488E-01  4.963532790E-02  8.861277197E+04  2.625245638E+02  3.338628387E+02  2.775892735E+02  3.353013859E+02  7.297269236E-01 
       110  5.034733117E-02  1.734133857E-01  5.212084081E-02  9.488118457E+04  2.581751595E+02  3.371288128E+02  2.830392323E+02  3.176823654E+02  7.149229944E-01 
       111  5.258765486E-02  1.728405975E-01  5.464144749E-02  9.917828223E+04  2.572161350E+02  3.392796860E+02  2.866575718E+02  3.072737427E+02  7.014744692E-01 
       112  5.479076840E-02  1.722430532E-01  5.718902978E-02  1.019932891E+05  2.573923445E+02  3.407419052E+02  2.891323061E+02  3.004305859E+02  6.903826464E-01 
       113  5.694737683E-02  1.716020731E-01  5.976586917E-02  1.049168391E+05  2.570533998E+02  3.420724545E+02  2.913947988E+02  2.921409528E+02  6.794785582E-01 
       114  5.911848447E-02  1.709340834E-01  6.233872565E-02  1.082242855E+05  2.551499521E+02  3.435963535E+02  2.939961092E+02  2.832859509E+02  6.737918323E-01 
       115  6.119351897E-02  1.703313828E-01  6.496775561E-02  1.109508357E+05  2.545184989E+02  3.447570534E+02  2.959854341E+02  2.761985574E+02  6.670584418E-01 
       116  6.319798910E-02  1.696485115E-01  6.765543605E-02  1.131729373E+05  2.537030339E+02  3.457320533E+02  2.976618438E+02  2.696645994E+02  6.619110266E-01 
       117  6.520189851E-02  1.689621155E-01  7.034628384E-02  1.154085186E+05  2.524362965E+02  3.465728016E+02  2.991112680E+02  2.641172848E+02  6.603121795E-01 
       118  6.717992039E-02  1.682884043E-01  7.305807409E-02  1.170968252E+05  2.501074972E+02  3.473145895E+02  3.003930588E+02  2.602378368E+02  6.651410423E-01 
       119  6.910755662E-02  1.675987334E-01  7.579818779E-02  1.185403378E+05  2.490952117E+02  3.477641916E+02  3.011711090E+02  2.561742518E+02  6.651571169E-01 
       120  7.101404689E-02  1.668389198E-01  7.852135391E-02  1.196280860E+05  2.463814046E+02  3.483045101E+02  3.021074793E+02  2.546493230E+02  6.746419081E-01 
