nodenumber     x-coordinate     y-coordinate     z-coordinate         pressure velocity-magnitude      sound-speed      temperature rel-velocity-magnitude relative-velocity-angle 
         1 -2.216901913E-02  1.039879580E-01 -4.300600202E-02  8.754851947E+04  1.539481050E+02  3.330498676E+02  2.762239714E+02  2.357965796E+02  8.594606525E-01 
         2 -2.197401757E-02  1.042260031E-01 -4.002397295E-02  8.746547974E+04  1.544307207E+02  3.330047482E+02  2.761492015E+02  2.363452196E+02  8.589446391E-01 
         3 -2.150271627E-02  1.045375264E-01 -3.708169353E-02  8.736174884E+04  1.550543771E+02  3.329481885E+02  2.760553522E+02  2.370184345E+02  8.581954837E-01 
         4 -2.072290556E-02  1.049359494E-01 -3.421635317E-02  8.724807080E+04  1.557411075E+02  3.328886099E+02  2.759565830E+02  2.377579055E+02  8.574052071E-01 
         5 -1.964621854E-02  1.053757771E-01 -3.145501365E-02  8.712603442E+04  1.564436502E+02  3.328261738E+02  2.758530555E+02  2.385141745E+02  8.566349261E-01 
         6 -1.833909717E-02  1.058829391E-01 -2.880182754E-02  8.697721265E+04  1.572211642E+02  3.327487745E+02  2.757247901E+02  2.394305959E+02  8.560660332E-01 
         7 -1.686396899E-02  1.064019756E-01 -2.624136390E-02  8.679843481E+04  1.580745158E+02  3.326538954E+02  2.755675535E+02  2.404483700E+02  8.554798197E-01 
         8 -1.524276490E-02  1.069101094E-01 -2.376908005E-02  8.658658899E+04  1.590657372E+02  3.325395241E+02  2.753781495E+02  2.415842371E+02  8.545994926E-01 
         9 -1.353040875E-02  1.074492491E-01 -2.136449246E-02  8.635883813E+04  1.602404492E+02  3.324160361E+02  2.751736226E+02  2.428477731E+02  8.532171138E-01 
        10 -1.175719847E-02  1.079385502E-01 -1.899452623E-02  8.617698853E+04  1.614653214E+02  3.323182862E+02  2.750117960E+02  2.439228034E+02  8.509428389E-01 
        11 -9.920451205E-03  1.084473482E-01 -1.667649769E-02  8.612520309E+04  1.625414159E+02  3.322914310E+02  2.749673940E+02  2.446220874E+02  8.481533364E-01 
        12 -8.053093039E-03  1.089314126E-01 -1.437870322E-02  8.628213870E+04  1.630715286E+02  3.323769026E+02  2.751088747E+02  2.443885895E+02  8.450212297E-01 
        13 -6.139911673E-03  1.093816015E-01 -1.211111235E-02  8.670252222E+04  1.626147580E+02  3.326027851E+02  2.754828691E+02  2.431479363E+02  8.437178340E-01 
        14 -4.213714023E-03  1.098625599E-01 -9.853315987E-03  8.742903125E+04  1.606667519E+02  3.329911461E+02  2.761266479E+02  2.407511663E+02  8.466408886E-01 
        15 -2.267252226E-03  1.102821410E-01 -7.616721013E-03  8.850593018E+04  1.565156870E+02  3.335667000E+02  2.770821142E+02  2.372315369E+02  8.581088781E-01 
        16 -3.058463972E-04  1.106716081E-01 -5.380345181E-03  8.950514136E+04  1.495156283E+02  3.340690298E+02  2.779174280E+02  2.341042724E+02  8.868933003E-01 
        17  1.649896870E-03  1.110991589E-01 -3.144821902E-03  8.731576733E+04  1.471183878E+02  3.328554764E+02  2.759033840E+02  2.435081301E+02  9.324048879E-01 
        18  3.605378217E-03  1.114680886E-01 -8.997268064E-04  7.614666125E+04  1.737402413E+02  3.265379992E+02  2.655286398E+02  2.842982235E+02  9.426961970E-01 
        19  5.548952344E-03  1.118349081E-01  1.356589372E-03  7.013589996E+04  2.076218190E+02  3.228858981E+02  2.596236796E+02  3.061972766E+02  8.484457140E-01 
        20  7.472030685E-03  1.121892539E-01  3.633809071E-03  7.263138484E+04  2.119612972E+02  3.245205038E+02  2.622614467E+02  2.980765423E+02  7.911022215E-01 
        21  9.366594022E-03  1.125505666E-01  5.932977735E-03  7.625847430E+04  2.087669370E+02  3.267097971E+02  2.658110099E+02  2.853584881E+02  7.577629122E-01 
        22  1.122147558E-02  1.129077905E-01  8.263617067E-03  7.869637104E+04  2.085928256E+02  3.280756133E+02  2.680364910E+02  2.768526973E+02  7.268244422E-01 
        23  1.303284284E-02  1.132507638E-01  1.062953057E-02  8.027972236E+04  2.112795108E+02  3.289197411E+02  2.694167839E+02  2.717527014E+02  6.945983633E-01 
        24  1.479928419E-02  1.136234762E-01  1.303021626E-02  8.145922636E+04  2.158219708E+02  3.295932045E+02  2.705212134E+02  2.682303668E+02  6.587841150E-01 
        25  1.649617427E-02  1.139938279E-01  1.547769530E-02  8.253701685E+04  2.207626259E+02  3.302141542E+02  2.715414762E+02  2.650835509E+02  6.224148767E-01 
        26  1.811807173E-02  1.143837002E-01  1.797032872E-02  8.334840784E+04  2.261195822E+02  3.306771851E+02  2.723029532E+02  2.629632101E+02  5.877871178E-01 
        27  1.968166241E-02  1.148013513E-01  2.049621310E-02  8.355600311E+04  2.329242218E+02  3.308131397E+02  2.725265584E+02  2.630975227E+02  5.538617778E-01 
        28  2.119101764E-02  1.152299366E-01  2.305322148E-02  8.307169080E+04  2.413747643E+02  3.306258255E+02  2.722180321E+02  2.654534931E+02  5.192786305E-01 
        29  2.266338778E-02  1.156643914E-01  2.563116057E-02  8.243083954E+04  2.502508124E+02  3.302870586E+02  2.716606027E+02  2.686253546E+02  4.855362463E-01 
        30  2.408077791E-02  1.161159634E-01  2.823658064E-02  8.186518658E+04  2.584826922E+02  3.300108731E+02  2.712064612E+02  2.714796846E+02  4.542457364E-01 
        31  2.544088325E-02  1.165921105E-01  3.086849856E-02  8.131110046E+04  2.666001143E+02  3.297031841E+02  2.707011189E+02  2.743856802E+02  4.240416805E-01 
        32  2.674433127E-02  1.170738851E-01  3.352942364E-02  8.075068604E+04  2.746052976E+02  3.294026046E+02  2.702078607E+02  2.773544221E+02  3.948513865E-01 
        33  2.797950643E-02  1.175445507E-01  3.622298897E-02  8.022365280E+04  2.824017612E+02  3.291690737E+02  2.698250185E+02  2.801213454E+02  3.660601840E-01 
        34  2.916313541E-02  1.180056499E-01  3.893937175E-02  7.992917664E+04  2.895902545E+02  3.290512376E+02  2.696322848E+02  2.820746195E+02  3.373742602E-01 
        35  3.031249539E-02  1.184785399E-01  4.167042727E-02  8.009518185E+04  2.953823411E+02  3.290840483E+02  2.696863909E+02  2.825516462E+02  3.104103752E-01 
        36  3.139929926E-02  1.189405785E-01  4.442941843E-02  8.041420236E+04  3.006704371E+02  3.292123865E+02  2.698966819E+02  2.824279785E+02  2.836856274E-01 
        37  3.242013936E-02  1.193808800E-01  4.721660669E-02  8.097336946E+04  3.056984513E+02  3.293563036E+02  2.701323645E+02  2.814619258E+02  2.547489194E-01 
        38  3.340677803E-02  1.198011670E-01  5.002067675E-02  8.219171112E+04  3.085570532E+02  3.299451348E+02  2.710990267E+02  2.781573397E+02  2.278986243E-01 
        39  3.430413654E-02  1.201853153E-01  5.285529857E-02  8.373864258E+04  3.102365170E+02  3.308759499E+02  2.726312561E+02  2.735454140E+02  2.020413512E-01 
        40  3.515433510E-02  1.205874318E-01  5.570324370E-02  8.560724707E+04  3.107302551E+02  3.319414635E+02  2.743902855E+02  2.679081135E+02  1.784998067E-01 
        41  3.592907297E-02  1.209644065E-01  5.857535950E-02  8.771514404E+04  3.098193078E+02  3.330910244E+02  2.762945604E+02  2.612886357E+02  1.588326269E-01 
        42  3.664355424E-02  1.213334730E-01  6.146049591E-02  8.994874817E+04  3.075096593E+02  3.342629337E+02  2.782420635E+02  2.541480651E+02  1.451166871E-01 
        43  3.727845098E-02  1.217084379E-01  6.437276718E-02  9.209860254E+04  3.043666487E+02  3.354017506E+02  2.801405821E+02  2.473107195E+02  1.377755408E-01 
        44  3.781448665E-02  1.220744111E-01  6.730672953E-02  9.390741919E+04  3.011128616E+02  3.363589783E+02  2.817415295E+02  2.416620727E+02  1.364586046E-01 
        45  3.826762164E-02  1.224563704E-01  7.025293559E-02  9.518580658E+04  2.983131971E+02  3.370686750E+02  2.829313962E+02  2.376253568E+02  1.394662494E-01 
        46  3.856443464E-02  1.228195695E-01  7.317567491E-02  9.594100391E+04  2.961245804E+02  3.375904388E+02  2.838078232E+02  2.349935760E+02  1.445508339E-01 
        47  3.882754171E-02  1.231963568E-01  7.616928387E-02  9.630818527E+04  2.945507791E+02  3.381918670E+02  2.848211408E+02  2.334959303E+02  1.511260180E-01 
        48  3.896508106E-02  1.235573809E-01  7.913505459E-02  9.642191016E+04  2.910932198E+02  3.391332703E+02  2.864212265E+02  2.283153381E+02  1.565013230E-01 
        49  3.903512947E-02  1.239238609E-01  8.213137167E-02  9.644239392E+04  2.828060927E+02  3.409226203E+02  2.894740713E+02  2.143441521E+02  1.632775518E-01 
        50  3.900153017E-02  1.243001337E-01  8.510504302E-02  9.633184903E+04  2.690294924E+02  3.438018180E+02  2.943966575E+02  1.890719572E+02  1.638351640E-01 
        51  3.889299026E-02  1.246700891E-01  8.806950082E-02  9.626991614E+04  2.530611060E+02  3.472935269E+02  3.004124997E+02  1.492975512E+02  1.442130746E-01 
        52  3.870303970E-02  1.250405990E-01  9.105247242E-02  9.631574170E+04  2.437305889E+02  3.501220012E+02  3.052990284E+02  1.121304089E+02  6.630629045E-02 
        53  3.847530202E-02  1.253810613E-01  9.402032493E-02  9.691799973E+04  2.416386789E+02  3.519365908E+02  3.084648087E+02  7.926099585E+01 -2.070254346E-01 
        54  3.809583015E-02  1.257752167E-01  9.695318516E-02  9.906698438E+04  2.400326424E+02  3.532336960E+02  3.107302742E+02  5.291379118E+01 -6.914431415E-01 
        55  3.767199372E-02  1.261489404E-01  9.992435767E-02  1.016508176E+05  2.394998899E+02  3.537879381E+02  3.116973519E+02  4.682558811E+01 -6.392029561E-01 
        56  3.723780727E-02  1.265196365E-01  1.028569506E-01  1.041429811E+05  2.375253518E+02  3.535903414E+02  3.113491243E+02  5.995170100E+01 -2.316841314E-01 
        57  3.672955052E-02  1.269046997E-01  1.057947981E-01  1.058191630E+05  2.378009589E+02  3.521222324E+02  3.087753663E+02  9.091120493E+01  1.181656227E-02 
        58  3.615520807E-02  1.273091289E-01  1.087154776E-01  1.069210842E+05  2.435220337E+02  3.495243444E+02  3.042424870E+02  1.308017673E+02  1.303595072E-01 
        59  3.556812424E-02  1.277144368E-01  1.116309472E-01  1.075846320E+05  2.539050198E+02  3.466036198E+02  2.991760502E+02  1.665543782E+02  1.792877081E-01 
        60  3.495651588E-02  1.281329458E-01  1.145394580E-01  1.077735642E+05  2.630522056E+02  3.443622875E+02  2.953121066E+02  1.881597347E+02  1.932480466E-01 
        61  3.433795015E-02  1.285471243E-01  1.174457346E-01  1.077269323E+05  2.680552609E+02  3.432287645E+02  2.933670812E+02  1.971842840E+02  1.943251318E-01 
        62  3.376061330E-02  1.289460490E-01  1.203607660E-01  1.077365663E+05  2.703669243E+02  3.429167893E+02  2.928332853E+02  1.999663045E+02  1.913749126E-01 
        63  3.331803132E-02  1.293309423E-01  1.232882868E-01  1.077886161E+05  2.718150852E+02  3.429240203E+02  2.928455602E+02  2.008710252E+02  1.875378195E-01 
        64  3.310586596E-02  1.296649637E-01  1.262581306E-01  1.077854883E+05  2.729215775E+02  3.429746315E+02  2.929320347E+02  2.013254013E+02  1.842740702E-01 
        65  3.306639982E-02  1.299493947E-01  1.292495641E-01  1.077177677E+05  2.738036101E+02  3.430011157E+02  2.929773062E+02  2.017574562E+02  1.823060388E-01 
        66  3.322486525E-02  1.302097713E-01  1.322380794E-01  1.076065787E+05  2.747217255E+02  3.429717588E+02  2.929271476E+02  2.025720217E+02  1.816677734E-01 
        67  3.356462385E-02  1.304573038E-01  1.352130229E-01  1.074711079E+05  2.756702306E+02  3.429158043E+02  2.928315410E+02  2.036764541E+02  1.822164597E-01 
        68  3.400410102E-02  1.306751199E-01  1.381765647E-01  1.072919169E+05  2.766183758E+02  3.428426852E+02  2.927066939E+02  2.049335113E+02  1.832119233E-01 
        69  3.451963359E-02  1.308741206E-01  1.411278790E-01  1.070537704E+05  2.776512747E+02  3.427465105E+02  2.925425267E+02  2.064271142E+02  1.845876984E-01 
        70  3.508991352E-02  1.310576265E-01  1.440660380E-01  1.067689957E+05  2.787932572E+02  3.426223688E+02  2.923306613E+02  2.080509002E+02  1.857961360E-01 
        71  3.570211579E-02  1.312503676E-01  1.470000000E-01  1.063209707E+05  2.801770668E+02  3.424390411E+02  2.920188179E+02  2.101188622E+02  1.868822370E-01 
        72 -2.843361623E-02  1.708417341E-01 -4.258217492E-02  8.203133643E+04  1.837707009E+02  3.299699793E+02  2.711388311E+02  3.443075447E+02  1.007646214E+00 
        73 -2.838826984E-02  1.709653765E-01 -3.916427879E-02  8.199413245E+04  1.842376642E+02  3.299518151E+02  2.711089880E+02  3.446453757E+02  1.006664170E+00 
        74 -2.835908450E-02  1.711140563E-01 -3.574649433E-02  8.231322870E+04  1.838587534E+02  3.301512709E+02  2.714369290E+02  3.437174907E+02  1.006289306E+00 
        75 -2.838361088E-02  1.712589164E-01 -3.232950605E-02  8.300530078E+04  1.829377484E+02  3.305343361E+02  2.720672569E+02  3.423421354E+02  1.006997012E+00 
        76 -2.841360827E-02  1.714319125E-01 -2.891476756E-02  8.385405713E+04  1.812375135E+02  3.310357080E+02  2.728931341E+02  3.398973308E+02  1.008524014E+00 
        77 -2.833774301E-02  1.716334782E-01 -2.549995819E-02  8.445450253E+04  1.801169257E+02  3.313537269E+02  2.734176410E+02  3.388337467E+02  1.010545949E+00 
        78 -2.791452343E-02  1.719215161E-01 -2.212016887E-02  8.462622119E+04  1.794599485E+02  3.314507694E+02  2.735778809E+02  3.384067020E+02  1.012120567E+00 
        79 -2.700703325E-02  1.722886754E-01 -1.884820631E-02  8.428188403E+04  1.795928802E+02  3.312444687E+02  2.732374878E+02  3.398321562E+02  1.014160499E+00 
        80 -2.544395246E-02  1.727209334E-01 -1.584518523E-02  8.311847107E+04  1.814291731E+02  3.305646510E+02  2.721172674E+02  3.432896657E+02  1.013968530E+00 
        81 -2.351536464E-02  1.732363399E-01 -1.306823492E-02  8.109102280E+04  1.854299934E+02  3.294074773E+02  2.702158469E+02  3.491223562E+02  1.010877530E+00 
        82 -2.134527601E-02  1.737374909E-01 -1.047435973E-02  7.833295459E+04  1.918203182E+02  3.277999557E+02  2.675853418E+02  3.570049196E+02  1.003964234E+00 
        83 -1.897326710E-02  1.742189522E-01 -8.035177519E-03  7.536595221E+04  1.997530016E+02  3.260134249E+02  2.646766645E+02  3.657010797E+02  9.941126648E-01 
        84 -1.652827274E-02  1.746780172E-01 -5.688541800E-03  7.309515826E+04  2.066229730E+02  3.246169744E+02  2.624135516E+02  3.724158273E+02  9.844435453E-01 
        85 -1.397929867E-02  1.751251779E-01 -3.446989688E-03  7.250206445E+04  2.098343005E+02  3.242255182E+02  2.617807765E+02  3.743694983E+02  9.775561169E-01 
        86 -1.139011487E-02  1.755573757E-01 -1.256774906E-03  7.420951563E+04  2.084875400E+02  3.253124785E+02  2.635404568E+02  3.700963225E+02  9.732539952E-01 
        87 -8.734274343E-03  1.759085237E-01  8.667805443E-04  7.950582355E+04  2.017587763E+02  3.285976861E+02  2.688955073E+02  3.552836163E+02  9.672800964E-01 
        88 -6.073383534E-03  1.762548475E-01  2.984781313E-03  8.890349103E+04  1.911125282E+02  3.337063718E+02  2.773215444E+02  3.296473792E+02  9.608480921E-01 
        89 -3.359730182E-03  1.765819110E-01  5.053045394E-03  9.855551227E+04  1.755552884E+02  3.384768622E+02  2.853026747E+02  3.041032591E+02  9.809151725E-01 
        90 -6.741955509E-04  1.768270807E-01  7.130208361E-03  9.832153427E+04  1.631916630E+02  3.386244113E+02  2.855502390E+02  3.057205795E+02  1.025615472E+00 
        91  2.027043660E-03  1.770783858E-01  9.208570588E-03  7.963788009E+04  1.908615585E+02  3.283791506E+02  2.685360953E+02  3.561253040E+02  1.006039094E+00 
        92  4.731686997E-03  1.772422585E-01  1.127155269E-02  7.216811320E+04  2.145987985E+02  3.239770413E+02  2.613811296E+02  3.770138174E+02  9.664758020E-01 
        93  7.454465044E-03  1.773874983E-01  1.334309669E-02  7.273754594E+04  2.111292346E+02  3.242368361E+02  2.618000085E+02  3.764086125E+02  9.767834283E-01 
        94  1.015989937E-02  1.775222933E-01  1.545596277E-02  7.045006831E+04  2.173875977E+02  3.229581373E+02  2.597429196E+02  3.827174882E+02  9.690153510E-01 
        95  1.284858280E-02  1.775661421E-01  1.756817794E-02  6.709738239E+04  2.276996747E+02  3.208570535E+02  2.563756839E+02  3.919166801E+02  9.542192295E-01 
        96  1.551966693E-02  1.776138061E-01  1.970369132E-02  6.410175836E+04  2.370217321E+02  3.187490244E+02  2.530188153E+02  4.006918440E+02  9.425069513E-01 
        97  1.817410325E-02  1.776258069E-01  2.186017323E-02  6.166091174E+04  2.455881882E+02  3.169190445E+02  2.501204915E+02  4.081696076E+02  9.308670806E-01 
        98  2.080993586E-02  1.775631240E-01  2.403936301E-02  6.005853101E+04  2.525697765E+02  3.157692075E+02  2.483054371E+02  4.129632416E+02  9.186495133E-01 
        99  2.341570779E-02  1.774969016E-01  2.625394818E-02  5.979429443E+04  2.572420588E+02  3.156289225E+02  2.480854039E+02  4.142716179E+02  9.060033727E-01 
       100  2.600295182E-02  1.773818036E-01  2.848806157E-02  6.187388892E+04  2.578804607E+02  3.171658220E+02  2.505254869E+02  4.087125807E+02  8.913228996E-01 
       101  2.856627515E-02  1.771883875E-01  3.074502562E-02  6.758316577E+04  2.523894043E+02  3.211447315E+02  2.568919353E+02  3.922795258E+02  8.742514998E-01 
       102  3.110662233E-02  1.769811535E-01  3.302644514E-02  7.557432275E+04  2.453255043E+02  3.262095976E+02  2.650540619E+02  3.699238586E+02  8.518796638E-01 
       103  3.362247542E-02  1.767159818E-01  3.532849163E-02  8.131135596E+04  2.438486052E+02  3.295336246E+02  2.704384761E+02  3.542170153E+02  8.258703407E-01 
       104  3.610895472E-02  1.763647845E-01  3.765120331E-02  8.178331116E+04  2.497345028E+02  3.297248402E+02  2.707407851E+02  3.533700328E+02  8.044470763E-01 
       105  3.856497337E-02  1.759966372E-01  4.000321012E-02  7.936006421E+04  2.582876028E+02  3.283689529E+02  2.685174927E+02  3.607557517E+02  7.895005532E-01 
       106  4.103059304E-02  1.755360248E-01  4.234569910E-02  7.786596804E+04  2.647108253E+02  3.276360239E+02  2.673172603E+02  3.652636952E+02  7.763224898E-01 
       107  4.340106546E-02  1.750377176E-01  4.474435622E-02  7.940363292E+04  2.667366515E+02  3.286633500E+02  2.690005460E+02  3.611257616E+02  7.616249111E-01 
       108  4.575540032E-02  1.745445103E-01  4.717695363E-02  8.412061121E+04  2.640182285E+02  3.314194388E+02  2.735381014E+02  3.483140430E+02  7.472198224E-01 
       109  4.807037784E-02  1.739953488E-01  4.963532790E-02  9.032038281E+04  2.594546881E+02  3.347518730E+02  2.790650282E+02  3.311140814E+02  7.325560655E-01 
       110  5.034733117E-02  1.734133857E-01  5.212084081E-02  9.516059912E+04  2.575892162E+02  3.372156944E+02  2.831807537E+02  3.177495270E+02  7.165091969E-01 
       111  5.258765486E-02  1.728405975E-01  5.464144749E-02  9.824476270E+04  2.585788822E+02  3.387040882E+02  2.856843224E+02  3.098479996E+02  7.003991269E-01 
       112  5.479076840E-02  1.722430532E-01  5.718902978E-02  1.011165044E+05  2.590999489E+02  3.401010647E+02  2.880459251E+02  3.027634001E+02  6.876072995E-01 
       113  5.694737683E-02  1.716020731E-01  5.976586917E-02  1.043230788E+05  2.584992008E+02  3.416621263E+02  2.906960499E+02  2.941123538E+02  6.768854451E-01 
       114  5.911848447E-02  1.709340834E-01  6.233872565E-02  1.074453396E+05  2.575002805E+02  3.431803119E+02  2.932843259E+02  2.861487277E+02  6.689915236E-01 
       115  6.119351897E-02  1.703313828E-01  6.496775561E-02  1.100610044E+05  2.568685317E+02  3.443522482E+02  2.952908201E+02  2.786506524E+02  6.613356676E-01 
       116  6.319798910E-02  1.696485115E-01  6.765543605E-02  1.124832717E+05  2.559146786E+02  3.453996043E+02  2.970894308E+02  2.715976038E+02  6.556804376E-01 
       117  6.520189851E-02  1.689621155E-01  7.034628384E-02  1.153598975E+05  2.538943787E+02  3.466399708E+02  2.992272301E+02  2.643183527E+02  6.546775587E-01 
       118  6.717992039E-02  1.682884043E-01  7.305807409E-02  1.175104678E+05  2.522831373E+02  3.475631294E+02  3.008227005E+02  2.587090864E+02  6.546390187E-01 
       119  6.910755662E-02  1.675987334E-01  7.579818779E-02  1.189510046E+05  2.512444639E+02  3.481148801E+02  3.017785053E+02  2.551848769E+02  6.552658766E-01 
       120  7.101404689E-02  1.668389198E-01  7.852135391E-02  1.200615940E+05  2.480047110E+02  3.486370709E+02  3.026846297E+02  2.518253736E+02  6.649113055E-01 
