nodenumber     x-coordinate     y-coordinate     z-coordinate         pressure velocity-magnitude      sound-speed      temperature rel-velocity-magnitude relative-velocity-angle 
         1 -2.216901913E-02  1.039879580E-01 -4.300600202E-02  8.755324797E+04  1.539486928E+02  3.330521274E+02  2.762277391E+02  2.357963740E+02  8.594586188E-01 
         2 -2.197401757E-02  1.042260031E-01 -4.002397295E-02  8.747495450E+04  1.544361522E+02  3.330101321E+02  2.761580472E+02  2.363468400E+02  8.589241060E-01 
         3 -2.150271627E-02  1.045375264E-01 -3.708169353E-02  8.737169794E+04  1.550566766E+02  3.329542885E+02  2.760654583E+02  2.370160538E+02  8.581751962E-01 
         4 -2.072290556E-02  1.049359494E-01 -3.421635317E-02  8.725429956E+04  1.557411492E+02  3.328922553E+02  2.759625912E+02  2.377483506E+02  8.573695254E-01 
         5 -1.964621854E-02  1.053757771E-01 -3.145501365E-02  8.712908081E+04  1.564351225E+02  3.328277931E+02  2.758557425E+02  2.385029569E+02  8.566399757E-01 
         6 -1.833909717E-02  1.058829391E-01 -2.880182754E-02  8.697918921E+04  1.571957345E+02  3.327504129E+02  2.757274985E+02  2.394136825E+02  8.561431468E-01 
         7 -1.686396899E-02  1.064019756E-01 -2.624136390E-02  8.679793774E+04  1.580403476E+02  3.326552563E+02  2.755698156E+02  2.404308238E+02  8.556027915E-01 
         8 -1.524276490E-02  1.069101094E-01 -2.376908005E-02  8.658115894E+04  1.590366275E+02  3.325394287E+02  2.753779469E+02  2.415819511E+02  8.547515739E-01 
         9 -1.353040875E-02  1.074492491E-01 -2.136449246E-02  8.634040198E+04  1.602528601E+02  3.324093795E+02  2.751625996E+02  2.428887608E+02  8.532957854E-01 
        10 -1.175719847E-02  1.079385502E-01 -1.899452623E-02  8.613737610E+04  1.615548742E+02  3.322991979E+02  2.749802103E+02  2.440187578E+02  8.507857118E-01 
        11 -9.920451205E-03  1.084473482E-01 -1.667649769E-02  8.606762802E+04  1.626984233E+02  3.322605520E+02  2.749162315E+02  2.447486470E+02  8.477285763E-01 
        12 -8.053093039E-03  1.089314126E-01 -1.437870322E-02  8.625073221E+04  1.631919287E+02  3.323591980E+02  2.750795211E+02  2.444832648E+02  8.446848206E-01 
        13 -6.139911673E-03  1.093816015E-01 -1.211111235E-02  8.676864209E+04  1.625266709E+02  3.326372852E+02  2.755400925E+02  2.429855895E+02  8.436370753E-01 
        14 -4.213714023E-03  1.098625599E-01 -9.853315987E-03  8.759167480E+04  1.603269596E+02  3.330800381E+02  2.762741184E+02  2.403348103E+02  8.470902555E-01 
        15 -2.267252226E-03  1.102821410E-01 -7.616721013E-03  8.852230420E+04  1.563109808E+02  3.335709667E+02  2.770891409E+02  2.371827793E+02  8.590424880E-01 
        16 -3.058463972E-04  1.106716081E-01 -5.380345181E-03  8.933707617E+04  1.499142942E+02  3.339652920E+02  2.777448006E+02  2.345432596E+02  8.861165047E-01 
        17  1.649896870E-03  1.110991589E-01 -3.144821902E-03  8.734514197E+04  1.461583858E+02  3.329832258E+02  2.761150389E+02  2.424148881E+02  9.341187431E-01 
        18  3.605378217E-03  1.114680886E-01 -8.997268064E-04  7.517143811E+04  1.758028238E+02  3.259975972E+02  2.646503959E+02  2.871639290E+02  9.431272130E-01 
        19  5.548952344E-03  1.118349081E-01  1.356589372E-03  7.043453351E+04  2.060723487E+02  3.230212283E+02  2.598412209E+02  3.049107382E+02  8.516060347E-01 
        20  7.472030685E-03  1.121892539E-01  3.633809071E-03  7.283833733E+04  2.106088787E+02  3.244696988E+02  2.621785675E+02  2.962518027E+02  7.908718719E-01 
        21  9.366594022E-03  1.125505666E-01  5.932977735E-03  7.620998376E+04  2.085004221E+02  3.264865623E+02  2.654476719E+02  2.849703450E+02  7.575834789E-01 
        22  1.122147558E-02  1.129077905E-01  8.263617067E-03  7.863417898E+04  2.085565996E+02  3.279710336E+02  2.678659666E+02  2.767487741E+02  7.265864059E-01 
        23  1.303284284E-02  1.132507638E-01  1.062953057E-02  8.033247973E+04  2.107959836E+02  3.290146467E+02  2.695724844E+02  2.711514197E+02  6.949686767E-01 
        24  1.479928419E-02  1.136234762E-01  1.303021626E-02  8.153917017E+04  2.151009801E+02  3.297330416E+02  2.707504908E+02  2.674170877E+02  6.596533344E-01 
        25  1.649617427E-02  1.139938279E-01  1.547769530E-02  8.250565991E+04  2.202707794E+02  3.302880888E+02  2.716626139E+02  2.646704540E+02  6.235345434E-01 
        26  1.811807173E-02  1.143837002E-01  1.797032872E-02  8.318602771E+04  2.260379276E+02  3.306892581E+02  2.723225937E+02  2.631818800E+02  5.890412116E-01 
        27  1.968166241E-02  1.148013513E-01  2.049621310E-02  8.337028113E+04  2.330486321E+02  3.308441582E+02  2.725775445E+02  2.636242909E+02  5.551518123E-01 
        28  2.119101764E-02  1.152299366E-01  2.305322148E-02  8.298051534E+04  2.416415866E+02  3.306998850E+02  2.723399519E+02  2.660712233E+02  5.201785998E-01 
        29  2.266338778E-02  1.156643914E-01  2.563116057E-02  8.242804614E+04  2.503723029E+02  3.304430203E+02  2.719172826E+02  2.689600122E+02  4.861367277E-01 
        30  2.408077791E-02  1.161159634E-01  2.823658064E-02  8.187407959E+04  2.586563561E+02  3.301990159E+02  2.715162902E+02  2.717972815E+02  4.545085682E-01 
        31  2.544088325E-02  1.165921105E-01  3.086849856E-02  8.129199744E+04  2.667779415E+02  3.299364085E+02  2.710851195E+02  2.748006053E+02  4.246462290E-01 
        32  2.674433127E-02  1.170738851E-01  3.352942364E-02  8.070788855E+04  2.747085371E+02  3.296673841E+02  2.706437068E+02  2.777457209E+02  3.957795850E-01 
        33  2.797950643E-02  1.175445507E-01  3.622298897E-02  8.019215170E+04  2.824888662E+02  3.294061528E+02  2.702153537E+02  2.804089713E+02  3.667110869E-01 
        34  2.916313541E-02  1.180056499E-01  3.893937175E-02  7.990970329E+04  2.897311976E+02  3.291970277E+02  2.698725870E+02  2.822984298E+02  3.375057650E-01 
        35  3.031249539E-02  1.184785399E-01  4.167042727E-02  8.000979648E+04  2.955760796E+02  3.291222241E+02  2.697499573E+02  2.827923011E+02  3.103258562E-01 
        36  3.139929926E-02  1.189405785E-01  4.442941843E-02  8.029447650E+04  3.009566697E+02  3.291667441E+02  2.698224454E+02  2.826703230E+02  2.830953464E-01 
        37  3.242013936E-02  1.193808800E-01  4.721660669E-02  8.090307575E+04  3.057827471E+02  3.292938179E+02  2.700300193E+02  2.814014281E+02  2.540092932E-01 
        38  3.340677803E-02  1.198011670E-01  5.002067675E-02  8.213105814E+04  3.085853773E+02  3.299121132E+02  2.710447963E+02  2.780752794E+02  2.273532550E-01 
        39  3.430413654E-02  1.201853153E-01  5.285529857E-02  8.372347046E+04  3.102942619E+02  3.308651733E+02  2.726135960E+02  2.735068808E+02  2.015138790E-01 
        40  3.515433510E-02  1.205874318E-01  5.570324370E-02  8.566196924E+04  3.105842152E+02  3.319640179E+02  2.744279442E+02  2.676859970E+02  1.783849299E-01 
        41  3.592907297E-02  1.209644065E-01  5.857535950E-02  8.784522754E+04  3.095077834E+02  3.331226234E+02  2.763471241E+02  2.609589148E+02  1.592222536E-01 
        42  3.664355424E-02  1.213334730E-01  6.146049591E-02  9.011894531E+04  3.071658072E+02  3.342944016E+02  2.782944236E+02  2.538082528E+02  1.456818683E-01 
        43  3.727845098E-02  1.217084379E-01  6.437276718E-02  9.225411621E+04  3.039514589E+02  3.354540987E+02  2.802282457E+02  2.469124060E+02  1.385744675E-01 
        44  3.781448665E-02  1.220744111E-01  6.730672953E-02  9.400839038E+04  3.005239401E+02  3.364510431E+02  2.818956966E+02  2.410788393E+02  1.375320675E-01 
        45  3.826762164E-02  1.224563704E-01  7.025293559E-02  9.520142102E+04  2.978997064E+02  3.371292665E+02  2.830327849E+02  2.371854538E+02  1.400947514E-01 
        46  3.856443464E-02  1.228195695E-01  7.317567491E-02  9.583119141E+04  2.967816315E+02  3.374337463E+02  2.835439224E+02  2.360882950E+02  1.451439895E-01 
        47  3.882754171E-02  1.231963568E-01  7.616928387E-02  9.611639865E+04  2.953500324E+02  3.379678774E+02  2.844444580E+02  2.342142373E+02  1.494734309E-01 
        48  3.896508106E-02  1.235573809E-01  7.913505459E-02  9.613508398E+04  2.911254539E+02  3.390272369E+02  2.862427368E+02  2.271742783E+02  1.516216733E-01 
        49  3.903512947E-02  1.239238609E-01  8.213137167E-02  9.607687000E+04  2.828162627E+02  3.408114643E+02  2.892834523E+02  2.126523778E+02  1.545762049E-01 
        50  3.900153017E-02  1.243001337E-01  8.510504302E-02  9.605420831E+04  2.692395951E+02  3.436450070E+02  2.941234773E+02  1.886158911E+02  1.573294230E-01 
        51  3.889299026E-02  1.246700891E-01  8.806950082E-02  9.621367334E+04  2.534168677E+02  3.471417634E+02  3.001428840E+02  1.521789453E+02  1.455610304E-01 
        52  3.870303970E-02  1.250405990E-01  9.105247242E-02  9.616711743E+04  2.456441131E+02  3.498709526E+02  3.048609138E+02  1.184189349E+02  6.496694556E-02 
        53  3.847530202E-02  1.253810613E-01  9.402032493E-02  9.710416711E+04  2.442961031E+02  3.518804326E+02  3.083674140E+02  8.641046900E+01 -2.208323621E-01 
        54  3.809583015E-02  1.257752167E-01  9.695318516E-02  9.965670020E+04  2.419225616E+02  3.532751198E+02  3.108040848E+02  5.979739380E+01 -5.625279956E-01 
        55  3.767199372E-02  1.261489404E-01  9.992435767E-02  1.021486863E+05  2.398649135E+02  3.540476513E+02  3.121549311E+02  5.295167387E+01 -4.424022250E-01 
        56  3.723780727E-02  1.265196365E-01  1.028569506E-01  1.044147820E+05  2.374152682E+02  3.538188430E+02  3.117507377E+02  6.357338373E+01 -1.631794775E-01 
        57  3.672955052E-02  1.269046997E-01  1.057947981E-01  1.059022129E+05  2.371040053E+02  3.523221951E+02  3.091246743E+02  9.047658634E+01  2.333815157E-02 
        58  3.615520807E-02  1.273091289E-01  1.087154776E-01  1.068105818E+05  2.419538941E+02  3.497427998E+02  3.046217413E+02  1.259823422E+02  1.266292334E-01 
        59  3.556812424E-02  1.277144368E-01  1.116309472E-01  1.073255280E+05  2.517528737E+02  3.467819932E+02  2.994843216E+02  1.602452611E+02  1.728350793E-01 
        60  3.495651588E-02  1.281329458E-01  1.145394580E-01  1.076067891E+05  2.617171240E+02  3.444531488E+02  2.954685836E+02  1.842766838E+02  1.886474602E-01 
        61  3.433795015E-02  1.285471243E-01  1.174457346E-01  1.077484384E+05  2.679671035E+02  3.432752976E+02  2.934467516E+02  1.962934105E+02  1.918717248E-01 
        62  3.376061330E-02  1.289460490E-01  1.203607660E-01  1.078399109E+05  2.708265533E+02  3.429669986E+02  2.929190629E+02  2.002959459E+02  1.897641274E-01 
        63  3.331803132E-02  1.293309423E-01  1.232882868E-01  1.079032961E+05  2.721812065E+02  3.429945638E+02  2.929660923E+02  2.012327816E+02  1.866012287E-01 
        64  3.310586596E-02  1.296649637E-01  1.262581306E-01  1.078753188E+05  2.731689560E+02  3.430387323E+02  2.930415318E+02  2.015720235E+02  1.836516100E-01 
        65  3.306639982E-02  1.299493947E-01  1.292495641E-01  1.077849655E+05  2.740624374E+02  3.430397660E+02  2.930433100E+02  2.019799975E+02  1.815248173E-01 
        66  3.322486525E-02  1.302097713E-01  1.322380794E-01  1.076459129E+05  2.749856426E+02  3.429955701E+02  2.929678231E+02  2.027216550E+02  1.805929772E-01 
        67  3.356462385E-02  1.304573038E-01  1.352130229E-01  1.074782292E+05  2.759614081E+02  3.429289653E+02  2.928540116E+02  2.038192505E+02  1.809543947E-01 
        68  3.400410102E-02  1.306751199E-01  1.381765647E-01  1.072635333E+05  2.769795163E+02  3.428378215E+02  2.926983833E+02  2.051530828E+02  1.818049280E-01 
        69  3.451963359E-02  1.308741206E-01  1.411278790E-01  1.070213477E+05  2.780353858E+02  3.427333174E+02  2.925200038E+02  2.066444578E+02  1.830452315E-01 
        70  3.508991352E-02  1.310576265E-01  1.440660380E-01  1.067347456E+05  2.791040580E+02  3.426190004E+02  2.923249259E+02  2.082161560E+02  1.845213610E-01 
        71  3.570211579E-02  1.312503676E-01  1.470000000E-01  1.063221504E+05  2.805307007E+02  3.424054375E+02  2.919618950E+02  2.104260025E+02  1.858723331E-01 
        72 -2.843361623E-02  1.708417341E-01 -4.258217492E-02  8.204142920E+04  1.838358426E+02  3.299756021E+02  2.711480675E+02  3.443536263E+02  1.007506076E+00 
        73 -2.838826984E-02  1.709653765E-01 -3.916427879E-02  8.201313263E+04  1.842573049E+02  3.299646192E+02  2.711300559E+02  3.445776701E+02  1.006471306E+00 
        74 -2.835908450E-02  1.711140563E-01 -3.574649433E-02  8.233005493E+04  1.839733173E+02  3.301492858E+02  2.714337008E+02  3.438720629E+02  1.006170284E+00 
        75 -2.838361088E-02  1.712589164E-01 -3.232950605E-02  8.303818872E+04  1.828415308E+02  3.305541010E+02  2.720997677E+02  3.421104298E+02  1.006904289E+00 
        76 -2.841360827E-02  1.714319125E-01 -2.891476756E-02  8.387676233E+04  1.812896252E+02  3.310263696E+02  2.728777723E+02  3.400287437E+02  1.008571416E+00 
        77 -2.833774301E-02  1.716334782E-01 -2.549995819E-02  8.446149640E+04  1.800533801E+02  3.313557748E+02  2.734210144E+02  3.386765677E+02  1.010494976E+00 
        78 -2.791452343E-02  1.719215161E-01 -2.212016887E-02  8.463844238E+04  1.793630419E+02  3.314529934E+02  2.735815325E+02  3.384972477E+02  1.012601536E+00 
        79 -2.700703325E-02  1.722886754E-01 -1.884820631E-02  8.430126099E+04  1.794638596E+02  3.312585249E+02  2.732606773E+02  3.397212267E+02  1.014413066E+00 
        80 -2.544395246E-02  1.727209334E-01 -1.584518523E-02  8.312896826E+04  1.812269964E+02  3.305952024E+02  2.721676083E+02  3.432405663E+02  1.014575123E+00 
        81 -2.351536464E-02  1.732363399E-01 -1.306823492E-02  8.104425623E+04  1.853807913E+02  3.294014933E+02  2.702060357E+02  3.493333983E+02  1.011428060E+00 
        82 -2.134527601E-02  1.737374909E-01 -1.047435973E-02  7.818124699E+04  1.921792510E+02  3.277286695E+02  2.674689850E+02  3.575832864E+02  1.003853934E+00 
        83 -1.897326710E-02  1.742189522E-01 -8.035177519E-03  7.519229089E+04  2.003263811E+02  3.259232268E+02  2.645299760E+02  3.662148517E+02  9.931870191E-01 
        84 -1.652827274E-02  1.746780172E-01 -5.688541800E-03  7.306740015E+04  2.068812468E+02  3.245736833E+02  2.623433998E+02  3.724172931E+02  9.835644020E-01 
        85 -1.397929867E-02  1.751251779E-01 -3.446989688E-03  7.248470374E+04  2.097257094E+02  3.241907363E+02  2.617245054E+02  3.742475228E+02  9.776511230E-01 
        86 -1.139011487E-02  1.755573757E-01 -1.256774906E-03  7.419278552E+04  2.082822328E+02  3.252999449E+02  2.635205026E+02  3.698128724E+02  9.733511042E-01 
        87 -8.734274343E-03  1.759085237E-01  8.667805443E-04  7.961346393E+04  2.019151484E+02  3.285791643E+02  2.688656380E+02  3.550412681E+02  9.663661439E-01 
        88 -6.073383534E-03  1.762548475E-01  2.984781313E-03  8.931913104E+04  1.904765534E+02  3.339040551E+02  2.776493583E+02  3.290916512E+02  9.619039930E-01 
        89 -3.359730182E-03  1.765819110E-01  5.053045394E-03  9.844095868E+04  1.757158481E+02  3.384143977E+02  2.851964622E+02  3.044699006E+02  9.803286628E-01 
        90 -6.741955509E-04  1.768270807E-01  7.130208361E-03  9.880876412E+04  1.633778028E+02  3.389078812E+02  2.860285720E+02  3.035938032E+02  1.022536735E+00 
        91  2.027043660E-03  1.770783858E-01  9.208570588E-03  7.830782527E+04  1.940278988E+02  3.278339433E+02  2.676452516E+02  3.592174952E+02  1.000946289E+00 
        92  4.731686997E-03  1.772422585E-01  1.127155269E-02  7.217988130E+04  2.141161942E+02  3.242308703E+02  2.617902134E+02  3.775988122E+02  9.692733313E-01 
        93  7.454465044E-03  1.773874983E-01  1.334309669E-02  7.308099095E+04  2.094205043E+02  3.244123958E+02  2.620837083E+02  3.743383712E+02  9.782557932E-01 
        94  1.015989937E-02  1.775222933E-01  1.545596277E-02  7.032355761E+04  2.171178351E+02  3.228285577E+02  2.595350220E+02  3.823017514E+02  9.690141347E-01 
        95  1.284858280E-02  1.775661421E-01  1.756817794E-02  6.680844147E+04  2.282698488E+02  3.205573978E+02  2.558978957E+02  3.927654169E+02  9.541490548E-01 
        96  1.551966693E-02  1.776138061E-01  1.970369132E-02  6.388577069E+04  2.375576355E+02  3.185002360E+02  2.526231823E+02  4.015079131E+02  9.424920231E-01 
        97  1.817410325E-02  1.776258069E-01  2.186017323E-02  6.152509119E+04  2.458635917E+02  3.167466016E+02  2.498489685E+02  4.087523990E+02  9.313092707E-01 
        98  2.080993586E-02  1.775631240E-01  2.403936301E-02  5.990421387E+04  2.531914344E+02  3.155051250E+02  2.478914456E+02  4.138171930E+02  9.186012894E-01 
        99  2.341570779E-02  1.774969016E-01  2.625394818E-02  5.966477441E+04  2.575465145E+02  3.154234428E+02  2.477629313E+02  4.146839247E+02  9.060000852E-01 
       100  2.600295182E-02  1.773818036E-01  2.848806157E-02  6.214547681E+04  2.571899881E+02  3.172846336E+02  2.507181721E+02  4.078671427E+02  8.918729611E-01 
       101  2.856627515E-02  1.771883875E-01  3.074502562E-02  6.849430103E+04  2.507179918E+02  3.215704279E+02  2.575746422E+02  3.898653002E+02  8.748156615E-01 
       102  3.110662233E-02  1.769811535E-01  3.302644514E-02  7.619433423E+04  2.438535137E+02  3.264395847E+02  2.654161606E+02  3.677930059E+02  8.523371015E-01 
       103  3.362247542E-02  1.767159818E-01  3.532849163E-02  8.068885791E+04  2.440279484E+02  3.292456388E+02  2.699600797E+02  3.550285330E+02  8.265120611E-01 
       104  3.610895472E-02  1.763647845E-01  3.765120331E-02  8.064964465E+04  2.506952667E+02  3.293783135E+02  2.701698833E+02  3.559170465E+02  8.057508143E-01 
       105  3.856497337E-02  1.759966372E-01  4.000321012E-02  7.871741504E+04  2.587859385E+02  3.282962216E+02  2.683971090E+02  3.625387249E+02  7.910578037E-01 
       106  4.103059304E-02  1.755360248E-01  4.234569910E-02  7.766906026E+04  2.646457032E+02  3.277840870E+02  2.675587069E+02  3.658522951E+02  7.776697798E-01 
       107  4.340106546E-02  1.750377176E-01  4.474435622E-02  7.950736118E+04  2.662226547E+02  3.288765826E+02  2.693495299E+02  3.610070970E+02  7.631694267E-01 
       108  4.575540032E-02  1.745445103E-01  4.717695363E-02  8.481300452E+04  2.627670898E+02  3.317057314E+02  2.740107222E+02  3.466418839E+02  7.485241136E-01 
       109  4.807037784E-02  1.739953488E-01  4.963532790E-02  9.085626294E+04  2.588003826E+02  3.349281015E+02  2.793568993E+02  3.295345030E+02  7.320252135E-01 
       110  5.034733117E-02  1.734133857E-01  5.212084081E-02  9.503440576E+04  2.580839939E+02  3.371938190E+02  2.831435490E+02  3.180110626E+02  7.151452713E-01 
       111  5.258765486E-02  1.728405975E-01  5.464144749E-02  9.809332520E+04  2.586877651E+02  3.387800980E+02  2.858130226E+02  3.102784214E+02  7.006908543E-01 
       112  5.479076840E-02  1.722430532E-01  5.718902978E-02  1.012442207E+05  2.585933752E+02  3.403033733E+02  2.883888502E+02  3.021806622E+02  6.885553710E-01 
       113  5.694737683E-02  1.716020731E-01  5.976586917E-02  1.044380246E+05  2.580361295E+02  3.418026943E+02  2.909349363E+02  2.936217146E+02  6.777899754E-01 
       114  5.911848447E-02  1.709340834E-01  6.233872565E-02  1.074041056E+05  2.573047886E+02  3.431746597E+02  2.932745892E+02  2.855692196E+02  6.689273358E-01 
       115  6.119351897E-02  1.703313828E-01  6.496775561E-02  1.100501143E+05  2.565358934E+02  3.443632355E+02  2.953096066E+02  2.784881978E+02  6.623443812E-01 
       116  6.319798910E-02  1.696485115E-01  6.765543605E-02  1.124762076E+05  2.557160325E+02  3.454334116E+02  2.971476007E+02  2.718460064E+02  6.567207426E-01 
       117  6.520189851E-02  1.689621155E-01  7.034628384E-02  1.147935830E+05  2.547655277E+02  3.464367495E+02  2.988761845E+02  2.656684208E+02  6.528011356E-01 
       118  6.717992039E-02  1.682884043E-01  7.305807409E-02  1.173400703E+05  2.530567532E+02  3.475391197E+02  3.007811394E+02  2.591965799E+02  6.520645972E-01 
       119  6.910755662E-02  1.675987334E-01  7.579818779E-02  1.196840479E+05  2.498099124E+02  3.484950194E+02  3.024380107E+02  2.535773127E+02  6.593578900E-01 
       120  7.101404689E-02  1.668389198E-01  7.852135391E-02  1.211334383E+05  2.449756579E+02  3.491239998E+02  3.035309131E+02  2.506906681E+02  6.762534413E-01 
