nodenumber     x-coordinate     y-coordinate     z-coordinate         pressure velocity-magnitude      sound-speed      temperature rel-velocity-magnitude relative-velocity-angle 
         1 -2.216901913E-02  1.039879580E-01 -4.300600202E-02  8.755249429E+04  1.537078449E+02  3.330714968E+02  2.762598815E+02  2.356676933E+02  8.603843214E-01 
         2 -2.197401757E-02  1.042260031E-01 -4.002397295E-02  8.744965613E+04  1.547534912E+02  3.329669229E+02  2.760864379E+02  2.366381795E+02  8.582527619E-01 
         3 -2.150271627E-02  1.045375264E-01 -3.708169353E-02  8.734871722E+04  1.549993899E+02  3.329493737E+02  2.760573614E+02  2.369110129E+02  8.581463103E-01 
         4 -2.072290556E-02  1.049359494E-01 -3.421635317E-02  8.721926343E+04  1.554036534E+02  3.329111090E+02  2.759939022E+02  2.374047422E+02  8.581347242E-01 
         5 -1.964621854E-02  1.053757771E-01 -3.145501365E-02  8.710630762E+04  1.563339176E+02  3.328277683E+02  2.758558478E+02  2.384761767E+02  8.572465945E-01 
         6 -1.833909717E-02  1.058829391E-01 -2.880182754E-02  8.696520825E+04  1.571241121E+02  3.327460461E+02  2.757204189E+02  2.394276710E+02  8.567657247E-01 
         7 -1.686396899E-02  1.064019756E-01 -2.624136390E-02  8.676658765E+04  1.580537324E+02  3.326361895E+02  2.755383663E+02  2.403453598E+02  8.553342707E-01 
         8 -1.524276490E-02  1.069101094E-01 -2.376908005E-02  8.657306055E+04  1.591244559E+02  3.325239320E+02  2.753523021E+02  2.414517589E+02  8.539237604E-01 
         9 -1.353040875E-02  1.074492491E-01 -2.136449246E-02  8.636765222E+04  1.602048373E+02  3.324121318E+02  2.751672642E+02  2.429309385E+02  8.537577270E-01 
        10 -1.175719847E-02  1.079385502E-01 -1.899452623E-02  8.614592334E+04  1.613384182E+02  3.323157041E+02  2.750075858E+02  2.438501492E+02  8.513698988E-01 
        11 -9.920451205E-03  1.084473482E-01 -1.667649769E-02  8.605595551E+04  1.625043192E+02  3.322654202E+02  2.749243823E+02  2.445314717E+02  8.480044352E-01 
        12 -8.053093039E-03  1.089314126E-01 -1.437870322E-02  8.621542148E+04  1.631171454E+02  3.323488812E+02  2.750625210E+02  2.445668044E+02  8.454124159E-01 
        13 -6.139911673E-03  1.093816015E-01 -1.211111235E-02  8.674736377E+04  1.626395178E+02  3.326170168E+02  2.755065608E+02  2.430356798E+02  8.431989495E-01 
        14 -4.213714023E-03  1.098625599E-01 -9.853315987E-03  8.757666113E+04  1.607008781E+02  3.330367241E+02  2.762023315E+02  2.407061949E+02  8.463869803E-01 
        15 -2.267252226E-03  1.102821410E-01 -7.616721013E-03  8.865020996E+04  1.561318426E+02  3.336491833E+02  2.772191496E+02  2.370356588E+02  8.596841283E-01 
        16 -3.058463972E-04  1.106716081E-01 -5.380345181E-03  8.940799365E+04  1.494985294E+02  3.340433826E+02  2.778749905E+02  2.342438540E+02  8.878583610E-01 
        17  1.649896870E-03  1.110991589E-01 -3.144821902E-03  8.753759229E+04  1.462676394E+02  3.330511541E+02  2.762275443E+02  2.432331679E+02  9.377287878E-01 
        18  3.605378217E-03  1.114680886E-01 -8.997268064E-04  7.555116272E+04  1.749310732E+02  3.262049747E+02  2.649881744E+02  2.845028186E+02  9.389648717E-01 
        19  5.548952344E-03  1.118349081E-01  1.356589372E-03  6.999763330E+04  2.096669387E+02  3.227547929E+02  2.594134448E+02  3.079457464E+02  8.448494123E-01 
        20  7.472030685E-03  1.121892539E-01  3.633809071E-03  7.300806506E+04  2.128319579E+02  3.247753025E+02  2.626758642E+02  2.994893500E+02  7.922806672E-01 
        21  9.366594022E-03  1.125505666E-01  5.932977735E-03  7.661546539E+04  2.076138052E+02  3.271444719E+02  2.665192001E+02  2.819899299E+02  7.512083552E-01 
        22  1.122147558E-02  1.129077905E-01  8.263617067E-03  7.903302850E+04  2.070353436E+02  3.285744501E+02  2.688528761E+02  2.740540285E+02  7.247820533E-01 
        23  1.303284284E-02  1.132507638E-01  1.062953057E-02  8.065426495E+04  2.091436696E+02  3.295481044E+02  2.704475331E+02  2.693612687E+02  6.972427194E-01 
        24  1.479928419E-02  1.136234762E-01  1.303021626E-02  8.179278969E+04  2.141720126E+02  3.301038020E+02  2.713598447E+02  2.661162979E+02  6.604490790E-01 
        25  1.649617427E-02  1.139938279E-01  1.547769530E-02  8.275471173E+04  2.194467292E+02  3.305624814E+02  2.721148107E+02  2.634048064E+02  6.240066537E-01 
        26  1.811807173E-02  1.143837002E-01  1.797032872E-02  8.341843066E+04  2.247718730E+02  3.308926449E+02  2.726586795E+02  2.616973548E+02  5.908364793E-01 
        27  1.968166241E-02  1.148013513E-01  2.049621310E-02  8.350416351E+04  2.316934493E+02  3.308737502E+02  2.726272664E+02  2.620786216E+02  5.572665688E-01 
        28  2.119101764E-02  1.152299366E-01  2.305322148E-02  8.301699954E+04  2.407275822E+02  3.305105644E+02  2.720287135E+02  2.653054020E+02  5.226328688E-01 
        29  2.266338778E-02  1.156643914E-01  2.563116057E-02  8.243796228E+04  2.491890295E+02  3.302259092E+02  2.715608290E+02  2.679736439E+02  4.887124500E-01 
        30  2.408077791E-02  1.161159634E-01  2.823658064E-02  8.192177802E+04  2.574036353E+02  3.299370120E+02  2.710858626E+02  2.701509554E+02  4.550689016E-01 
        31  2.544088325E-02  1.165921105E-01  3.086849856E-02  8.137101941E+04  2.660957685E+02  3.295147147E+02  2.703926768E+02  2.732601891E+02  4.227246833E-01 
        32  2.674433127E-02  1.170738851E-01  3.352942364E-02  8.076419861E+04  2.747911317E+02  3.290698214E+02  2.696629951E+02  2.771624246E+02  3.933254201E-01 
        33  2.797950643E-02  1.175445507E-01  3.622298897E-02  8.017542178E+04  2.826042385E+02  3.288001963E+02  2.692209041E+02  2.804581970E+02  3.662276791E-01 
        34  2.916313541E-02  1.180056499E-01  3.893937175E-02  7.982883105E+04  2.892618125E+02  3.287925007E+02  2.692080847E+02  2.820791874E+02  3.389302500E-01 
        35  3.031249539E-02  1.184785399E-01  4.167042727E-02  7.993331247E+04  2.955403231E+02  3.288813868E+02  2.693535541E+02  2.828067728E+02  3.102942763E-01 
        36  3.139929926E-02  1.189405785E-01  4.442941843E-02  8.021753040E+04  3.018552743E+02  3.290032650E+02  2.695535090E+02  2.833532385E+02  2.808178191E-01 
        37  3.242013936E-02  1.193808800E-01  4.721660669E-02  8.079677734E+04  3.071123085E+02  3.293752503E+02  2.701634921E+02  2.825214687E+02  2.511343365E-01 
        38  3.340677803E-02  1.198011670E-01  5.002067675E-02  8.207380273E+04  3.099776344E+02  3.300946130E+02  2.713447517E+02  2.794325936E+02  2.251117106E-01 
        39  3.430413654E-02  1.201853153E-01  5.285529857E-02  8.381270483E+04  3.111076355E+02  3.310634375E+02  2.729404583E+02  2.744361210E+02  2.007183032E-01 
        40  3.515433510E-02  1.205874318E-01  5.570324370E-02  8.595005566E+04  3.106322098E+02  3.322712936E+02  2.749365501E+02  2.679450302E+02  1.791027477E-01 
        41  3.592907297E-02  1.209644065E-01  5.857535950E-02  8.833547681E+04  3.088249550E+02  3.335856647E+02  2.771160808E+02  2.605046682E+02  1.611899957E-01 
        42  3.664355424E-02  1.213334730E-01  6.146049591E-02  9.079082153E+04  3.058942642E+02  3.347982559E+02  2.791339960E+02  2.526712775E+02  1.484030464E-01 
        43  3.727845098E-02  1.217084379E-01  6.437276718E-02  9.304994360E+04  3.021518307E+02  3.358334827E+02  2.808622389E+02  2.452343645E+02  1.423661686E-01 
        44  3.781448665E-02  1.220744111E-01  6.730672953E-02  9.482855298E+04  2.983834400E+02  3.366797056E+02  2.822786074E+02  2.393336339E+02  1.432849895E-01 
        45  3.826762164E-02  1.224563704E-01  7.025293559E-02  9.599177722E+04  2.955345213E+02  3.372709906E+02  2.832706745E+02  2.356934403E+02  1.484644375E-01 
        46  3.856443464E-02  1.228195695E-01  7.317567491E-02  9.662025781E+04  2.936043625E+02  3.376949463E+02  2.839835129E+02  2.338251648E+02  1.553751826E-01 
        47  3.882754171E-02  1.231963568E-01  7.616928387E-02  9.682760226E+04  2.917687303E+02  3.383451566E+02  2.850799241E+02  2.315585743E+02  1.606726313E-01 
        48  3.896508106E-02  1.235573809E-01  7.913505459E-02  9.674759766E+04  2.874240303E+02  3.395228348E+02  2.870822639E+02  2.243213921E+02  1.648650914E-01 
        49  3.903512947E-02  1.239238609E-01  8.213137167E-02  9.661450842E+04  2.770084476E+02  3.417412369E+02  2.908739164E+02  2.058100989E+02  1.741314356E-01 
        50  3.900153017E-02  1.243001337E-01  8.510504302E-02  9.641046359E+04  2.588773502E+02  3.453565463E+02  2.970726100E+02  1.721432426E+02  1.868609856E-01 
        51  3.889299026E-02  1.246700891E-01  8.806950082E-02  9.607254669E+04  2.412704763E+02  3.490604022E+02  3.034662464E+02  1.256020627E+02  1.750792330E-01 
        52  3.870303970E-02  1.250405990E-01  9.105247242E-02  9.593009741E+04  2.336826401E+02  3.516829562E+02  3.080135069E+02  8.459760964E+01  5.332477624E-02 
        53  3.847530202E-02  1.253810613E-01  9.402032493E-02  9.627344711E+04  2.346910636E+02  3.524949393E+02  3.094331200E+02  5.075855850E+01 -4.096174613E-01 
        54  3.809583015E-02  1.257752167E-01  9.695318516E-02  9.694138086E+04  2.372522163E+02  3.527117386E+02  3.098071022E+02  4.152964735E+01 -1.552227996E+00 
        55  3.767199372E-02  1.261489404E-01  9.992435767E-02  9.821890747E+04  2.487314177E+02  3.524146118E+02  3.092818637E+02  4.795514679E+01 -1.935656518E+00 
        56  3.723780727E-02  1.265196365E-01  1.028569506E-01  9.974801328E+04  2.526590753E+02  3.512629315E+02  3.072648746E+02  6.946174489E+01 -1.063218805E+00 
        57  3.672955052E-02  1.269046997E-01  1.057947981E-01  1.014394666E+05  2.407467420E+02  3.497109613E+02  3.045547013E+02  1.101423292E+02  9.700713912E-03 
        58  3.615520807E-02  1.273091289E-01  1.087154776E-01  1.040791794E+05  2.351214533E+02  3.473892403E+02  3.005272264E+02  1.497720995E+02  2.722715214E-01 
        59  3.556812424E-02  1.277144368E-01  1.116309472E-01  1.065251852E+05  2.438158286E+02  3.449464018E+02  2.963130145E+02  1.752600507E+02  2.767739494E-01 
        60  3.495651588E-02  1.281329458E-01  1.145394580E-01  1.079059634E+05  2.532998786E+02  3.438578701E+02  2.944447885E+02  1.845857182E+02  2.432896765E-01 
        61  3.433795015E-02  1.285471243E-01  1.174457346E-01  1.081720845E+05  2.633689861E+02  3.432925124E+02  2.934771142E+02  1.903350883E+02  1.999402877E-01 
        62  3.376061330E-02  1.289460490E-01  1.203607660E-01  1.080768156E+05  2.683891213E+02  3.432078569E+02  2.933316307E+02  1.946463528E+02  1.853167206E-01 
        63  3.331803132E-02  1.293309423E-01  1.232882868E-01  1.081090511E+05  2.695692521E+02  3.432285177E+02  2.933667235E+02  1.957971305E+02  1.839045652E-01 
        64  3.310586596E-02  1.296649637E-01  1.262581306E-01  1.081294089E+05  2.696973386E+02  3.430980809E+02  2.931434014E+02  1.968745435E+02  1.886058165E-01 
        65  3.306639982E-02  1.299493947E-01  1.292495641E-01  1.080944792E+05  2.704791642E+02  3.429641025E+02  2.929143970E+02  1.996929812E+02  1.954161426E-01 
        66  3.322486525E-02  1.302097713E-01  1.322380794E-01  1.079680009E+05  2.719138014E+02  3.428568416E+02  2.927312329E+02  2.014472557E+02  1.948258069E-01 
        67  3.356462385E-02  1.304573038E-01  1.352130229E-01  1.077711685E+05  2.733213513E+02  3.428235528E+02  2.926743338E+02  2.021310996E+02  1.910704239E-01 
        68  3.400410102E-02  1.306751199E-01  1.381765647E-01  1.074497839E+05  2.747011468E+02  3.427740321E+02  2.925897284E+02  2.035118866E+02  1.899277710E-01 
        69  3.451963359E-02  1.308741206E-01  1.411278790E-01  1.070797675E+05  2.763970842E+02  3.426601024E+02  2.923952792E+02  2.057600327E+02  1.899443609E-01 
        70  3.508991352E-02  1.310576265E-01  1.440660380E-01  1.067247574E+05  2.780117524E+02  3.425132923E+02  2.921447194E+02  2.080675046E+02  1.906732956E-01 
        71  3.570211579E-02  1.312503676E-01  1.470000000E-01  1.062937666E+05  2.795311813E+02  3.423409920E+02  2.918482475E+02  2.103863945E+02  1.917776689E-01 
        72 -2.843361623E-02  1.708417341E-01 -4.258217492E-02  8.210711548E+04  1.839008412E+02  3.299898672E+02  2.711716280E+02  3.447175541E+02  1.008058779E+00 
        73 -2.838826984E-02  1.709653765E-01 -3.916427879E-02  8.218294818E+04  1.838676152E+02  3.300460567E+02  2.712640953E+02  3.442184491E+02  1.007299355E+00 
        74 -2.835908450E-02  1.711140563E-01 -3.574649433E-02  8.240121539E+04  1.834681969E+02  3.301878033E+02  2.714973965E+02  3.431466835E+02  1.007057460E+00 
        75 -2.838361088E-02  1.712589164E-01 -3.232950605E-02  8.282298584E+04  1.832632837E+02  3.303964329E+02  2.718405590E+02  3.437618132E+02  1.008803453E+00 
        76 -2.841360827E-02  1.714319125E-01 -2.891476756E-02  8.324105457E+04  1.823214087E+02  3.306710935E+02  2.722925992E+02  3.411049576E+02  1.007290009E+00 
        77 -2.833774301E-02  1.716334782E-01 -2.549995819E-02  8.372917194E+04  1.816487278E+02  3.309604778E+02  2.727693487E+02  3.402748153E+02  1.008031955E+00 
        78 -2.791452343E-02  1.719215161E-01 -2.212016887E-02  8.421521777E+04  1.801128092E+02  3.312276039E+02  2.732098455E+02  3.391325207E+02  1.011421591E+00 
        79 -2.700703325E-02  1.722886754E-01 -1.884820631E-02  8.418890234E+04  1.806867595E+02  3.310866365E+02  2.729775124E+02  3.411995611E+02  1.013321795E+00 
        80 -2.544395246E-02  1.727209334E-01 -1.584518523E-02  8.320043243E+04  1.813664743E+02  3.306173499E+02  2.722044673E+02  3.436293123E+02  1.015082933E+00 
        81 -2.351536464E-02  1.732363399E-01 -1.306823492E-02  8.127823636E+04  1.852289473E+02  3.295041292E+02  2.703750717E+02  3.480461536E+02  1.009939729E+00 
        82 -2.134527601E-02  1.737374909E-01 -1.047435973E-02  7.877656226E+04  1.907883069E+02  3.280624480E+02  2.680139303E+02  3.557773920E+02  1.005968783E+00 
        83 -1.897326710E-02  1.742189522E-01 -8.035177519E-03  7.586859769E+04  1.994967813E+02  3.261806873E+02  2.649490153E+02  3.636323999E+02  9.913221584E-01 
        84 -1.652827274E-02  1.746780172E-01 -5.688541800E-03  7.362789313E+04  2.045552516E+02  3.249821219E+02  2.630050840E+02  3.700554748E+02  9.869707087E-01 
        85 -1.397929867E-02  1.751251779E-01 -3.446989688E-03  7.270143384E+04  2.095407543E+02  3.243498797E+02  2.619824381E+02  3.730833058E+02  9.762312416E-01 
        86 -1.139011487E-02  1.755573757E-01 -1.256774906E-03  7.347771448E+04  2.100489717E+02  3.248671265E+02  2.628209062E+02  3.716452174E+02  9.714481961E-01 
        87 -8.734274343E-03  1.759085237E-01  8.667805443E-04  7.818598840E+04  2.039518603E+02  3.278141899E+02  2.676199920E+02  3.574181843E+02  9.647133322E-01 
        88 -6.073383534E-03  1.762548475E-01  2.984781313E-03  8.811977887E+04  1.916222548E+02  3.331752243E+02  2.764429528E+02  3.320933099E+02  9.634901700E-01 
        89 -3.359730182E-03  1.765819110E-01  5.053045394E-03  9.807671387E+04  1.763387843E+02  3.382143247E+02  2.848594445E+02  3.048118129E+02  9.789661393E-01 
        90 -6.741955509E-04  1.768270807E-01  7.130208361E-03  9.632979267E+04  1.702875657E+02  3.370843618E+02  2.829599535E+02  3.126350923E+02  1.009625588E+00 
        91  2.027043660E-03  1.770783858E-01  9.208570588E-03  7.880426257E+04  1.913028319E+02  3.282256769E+02  2.682862225E+02  3.587555277E+02  1.009285905E+00 
        92  4.731686997E-03  1.772422585E-01  1.127155269E-02  7.355759663E+04  2.107026779E+02  3.248652486E+02  2.628183188E+02  3.709061158E+02  9.679212843E-01 
        93  7.454465044E-03  1.773874983E-01  1.334309669E-02  7.398337561E+04  2.070632868E+02  3.251629621E+02  2.632998140E+02  3.699614236E+02  9.782270107E-01 
        94  1.015989937E-02  1.775222933E-01  1.545596277E-02  7.097317418E+04  2.164735436E+02  3.233509159E+02  2.603798045E+02  3.816922893E+02  9.706859853E-01 
        95  1.284858280E-02  1.775661421E-01  1.756817794E-02  6.740224619E+04  2.287761624E+02  3.208623097E+02  2.563882858E+02  3.932790008E+02  9.545516423E-01 
        96  1.551966693E-02  1.776138061E-01  1.970369132E-02  6.436578900E+04  2.368855851E+02  3.188004885E+02  2.531052995E+02  4.001457624E+02  9.429610902E-01 
        97  1.817410325E-02  1.776258069E-01  2.186017323E-02  6.175332422E+04  2.445695236E+02  3.170004015E+02  2.502528076E+02  4.068426104E+02  9.322402896E-01 
        98  2.080993586E-02  1.775631240E-01  2.403936301E-02  5.979435791E+04  2.532700524E+02  3.154553876E+02  2.478192248E+02  4.138276167E+02  9.191581197E-01 
        99  2.341570779E-02  1.774969016E-01  2.625394818E-02  5.922255823E+04  2.590739741E+02  3.150725031E+02  2.472182899E+02  4.166366348E+02  9.063227493E-01 
       100  2.600295182E-02  1.773818036E-01  2.848806157E-02  6.099770947E+04  2.602257071E+02  3.165319519E+02  2.495243254E+02  4.116472664E+02  8.909428678E-01 
       101  2.856627515E-02  1.771883875E-01  3.074502562E-02  6.658635718E+04  2.555554876E+02  3.204578400E+02  2.558043242E+02  3.956479492E+02  8.723792732E-01 
       102  3.110662233E-02  1.769811535E-01  3.302644514E-02  7.511852344E+04  2.472047348E+02  3.259746752E+02  2.646876593E+02  3.716732044E+02  8.508915957E-01 
       103  3.362247542E-02  1.767159818E-01  3.532849163E-02  8.181401331E+04  2.433151526E+02  3.300286350E+02  2.712587767E+02  3.530240736E+02  8.269921392E-01 
       104  3.610895472E-02  1.763647845E-01  3.765120331E-02  8.299261475E+04  2.473601828E+02  3.307510881E+02  2.724324203E+02  3.497441511E+02  8.070720965E-01 
       105  3.856497337E-02  1.759966372E-01  4.000321012E-02  8.053735645E+04  2.562907200E+02  3.292539687E+02  2.699697695E+02  3.569966760E+02  7.899418161E-01 
       106  4.103059304E-02  1.755360248E-01  4.234569910E-02  7.834604789E+04  2.640174171E+02  3.279661065E+02  2.678592599E+02  3.635775631E+02  7.760307588E-01 
       107  4.340106546E-02  1.750377176E-01  4.474435622E-02  7.873092731E+04  2.673990481E+02  3.283105142E+02  2.684230351E+02  3.618638248E+02  7.612094695E-01 
       108  4.575540032E-02  1.745445103E-01  4.717695363E-02  8.220897205E+04  2.661546597E+02  3.304764028E+02  2.719819803E+02  3.517626119E+02  7.465015128E-01 
       109  4.807037784E-02  1.739953488E-01  4.963532790E-02  8.841055884E+04  2.611023798E+02  3.340045519E+02  2.778270159E+02  3.338851738E+02  7.323999852E-01 
       110  5.034733117E-02  1.734133857E-01  5.212084081E-02  9.485983496E+04  2.569984894E+02  3.373677101E+02  2.834413910E+02  3.158950176E+02  7.162688375E-01 
       111  5.258765486E-02  1.728405975E-01  5.464144749E-02  9.919976416E+04  2.570936069E+02  3.393287678E+02  2.867397804E+02  3.067666626E+02  7.011299133E-01 
       112  5.479076840E-02  1.722430532E-01  5.718902978E-02  1.020009834E+05  2.583517160E+02  3.405696774E+02  2.888401384E+02  3.012661781E+02  6.881742962E-01 
       113  5.694737683E-02  1.716020731E-01  5.976586917E-02  1.049917690E+05  2.585549784E+02  3.419233153E+02  2.911414270E+02  2.929722097E+02  6.752338950E-01 
       114  5.911848447E-02  1.709340834E-01  6.233872565E-02  1.084175814E+05  2.565802155E+02  3.435604559E+02  2.939354146E+02  2.827956825E+02  6.680156532E-01 
       115  6.119351897E-02  1.703313828E-01  6.496775561E-02  1.113532593E+05  2.545749483E+02  3.449806662E+02  2.963699002E+02  2.746642470E+02  6.650720127E-01 
       116  6.319798910E-02  1.696485115E-01  6.765543605E-02  1.135967009E+05  2.539462948E+02  3.459087219E+02  2.979661255E+02  2.694162807E+02  6.607008157E-01 
       117  6.520189851E-02  1.689621155E-01  7.034628384E-02  1.156782358E+05  2.518642836E+02  3.468339586E+02  2.995621834E+02  2.640393095E+02  6.623843685E-01 
       118  6.717992039E-02  1.682884043E-01  7.305807409E-02  1.173371787E+05  2.503852463E+02  3.475051241E+02  3.007225332E+02  2.603158512E+02  6.640392039E-01 
       119  6.910755662E-02  1.675987334E-01  7.579818779E-02  1.186631774E+05  2.494180305E+02  3.480383863E+02  3.016461902E+02  2.562721982E+02  6.639416879E-01 
       120  7.101404689E-02  1.668389198E-01  7.852135391E-02  1.197259332E+05  2.470032514E+02  3.484849243E+02  3.024205515E+02  2.534218686E+02  6.708455221E-01 
