nodenumber     x-coordinate     y-coordinate     z-coordinate         pressure velocity-magnitude      sound-speed      temperature rel-velocity-magnitude relative-velocity-angle 
         1 -2.216901913E-02  1.039879580E-01 -4.300600202E-02  8.758764589E+04  1.537631065E+02  3.330612469E+02  2.762429347E+02  2.357410429E+02  8.603403751E-01 
         2 -2.197401757E-02  1.042260031E-01 -4.002397295E-02  8.746160217E+04  1.544404157E+02  3.329968460E+02  2.761360344E+02  2.364143802E+02  8.591731410E-01 
         3 -2.150271627E-02  1.045375264E-01 -3.708169353E-02  8.736231543E+04  1.550820680E+02  3.329438403E+02  2.760481784E+02  2.370365860E+02  8.581224983E-01 
         4 -2.072290556E-02  1.049359494E-01 -3.421635317E-02  8.726169299E+04  1.556811371E+02  3.328972540E+02  2.759709435E+02  2.377181756E+02  8.575968463E-01 
         5 -1.964621854E-02  1.053757771E-01 -3.145501365E-02  8.715889111E+04  1.563637123E+02  3.328418274E+02  2.758790627E+02  2.384256268E+02  8.568180501E-01 
         6 -1.833909717E-02  1.058829391E-01 -2.880182754E-02  8.701193408E+04  1.570945945E+02  3.327682018E+02  2.757570319E+02  2.392770367E+02  8.562786598E-01 
         7 -1.686396899E-02  1.064019756E-01 -2.624136390E-02  8.681573608E+04  1.580058227E+02  3.326602669E+02  2.755782757E+02  2.403548608E+02  8.556084502E-01 
         8 -1.524276490E-02  1.069101094E-01 -2.376908005E-02  8.659865833E+04  1.589417317E+02  3.325487189E+02  2.753935623E+02  2.415558667E+02  8.552369438E-01 
         9 -1.353040875E-02  1.074492491E-01 -2.136449246E-02  8.633666931E+04  1.601761384E+02  3.324090385E+02  2.751621807E+02  2.429701691E+02  8.540113298E-01 
        10 -1.175719847E-02  1.079385502E-01 -1.899452623E-02  8.608642316E+04  1.617770675E+02  3.322540834E+02  2.749056706E+02  2.441878972E+02  8.501780806E-01 
        11 -9.920451205E-03  1.084473482E-01 -1.667649769E-02  8.599997656E+04  1.630132104E+02  3.322000062E+02  2.748161870E+02  2.449200450E+02  8.467275577E-01 
        12 -8.053093039E-03  1.089314126E-01 -1.437870322E-02  8.619465067E+04  1.633287225E+02  3.323248088E+02  2.750226822E+02  2.444839141E+02  8.439704357E-01 
        13 -6.139911673E-03  1.093816015E-01 -1.211111235E-02  8.670679150E+04  1.627737708E+02  3.326006174E+02  2.754793730E+02  2.432246451E+02  8.431014325E-01 
        14 -4.213714023E-03  1.098625599E-01 -9.853315987E-03  8.752861768E+04  1.604895096E+02  3.330542812E+02  2.762314110E+02  2.405574560E+02  8.469908461E-01 
        15 -2.267252226E-03  1.102821410E-01 -7.616721013E-03  8.859852295E+04  1.562644920E+02  3.336232796E+02  2.771761904E+02  2.370320244E+02  8.589040861E-01 
        16 -3.058463972E-04  1.106716081E-01 -5.380345181E-03  8.944748975E+04  1.497980671E+02  3.340116844E+02  2.778221684E+02  2.341052203E+02  8.854727317E-01 
        17  1.649896870E-03  1.110991589E-01 -3.144821902E-03  8.730263513E+04  1.457639343E+02  3.329951453E+02  2.761345491E+02  2.439039094E+02  9.413813287E-01 
        18  3.605378217E-03  1.114680886E-01 -8.997268064E-04  7.567934204E+04  1.757253423E+02  3.262616796E+02  2.650807376E+02  2.860716867E+02  9.395412058E-01 
        19  5.548952344E-03  1.118349081E-01  1.356589372E-03  6.993788477E+04  2.084310949E+02  3.228778634E+02  2.596114151E+02  3.069778757E+02  8.476324510E-01 
        20  7.472030685E-03  1.121892539E-01  3.633809071E-03  7.294482339E+04  2.137869573E+02  3.245919811E+02  2.623777086E+02  3.001237791E+02  7.899528991E-01 
        21  9.366594022E-03  1.125505666E-01  5.932977735E-03  7.667448663E+04  2.098939313E+02  3.268825965E+02  2.660942831E+02  2.867006781E+02  7.575404183E-01 
        22  1.122147558E-02  1.129077905E-01  8.263617067E-03  7.903841805E+04  2.089379987E+02  3.283271108E+02  2.684494630E+02  2.770256746E+02  7.260388666E-01 
        23  1.303284284E-02  1.132507638E-01  1.062953057E-02  8.050487544E+04  2.115416892E+02  3.291695381E+02  2.698269254E+02  2.724175982E+02  6.964297537E-01 
        24  1.479928419E-02  1.136234762E-01  1.303021626E-02  8.164315288E+04  2.152720318E+02  3.298911389E+02  2.710110083E+02  2.676819339E+02  6.605301267E-01 
        25  1.649617427E-02  1.139938279E-01  1.547769530E-02  8.271399872E+04  2.197658992E+02  3.304787829E+02  2.719771705E+02  2.639476399E+02  6.241360186E-01 
        26  1.811807173E-02  1.143837002E-01  1.797032872E-02  8.344808252E+04  2.254801278E+02  3.307925615E+02  2.724933419E+02  2.629588594E+02  5.914437678E-01 
        27  1.968166241E-02  1.148013513E-01  2.049621310E-02  8.350903571E+04  2.328815832E+02  3.307521565E+02  2.724266567E+02  2.644853454E+02  5.592596792E-01 
        28  2.119101764E-02  1.152299366E-01  2.305322148E-02  8.298691119E+04  2.417547427E+02  3.304524173E+02  2.719329237E+02  2.672864306E+02  5.241229938E-01 
        29  2.266338778E-02  1.156643914E-01  2.563116057E-02  8.240955328E+04  2.506174234E+02  3.301500349E+02  2.714356455E+02  2.694849277E+02  4.866815577E-01 
        30  2.408077791E-02  1.161159634E-01  2.823658064E-02  8.188251886E+04  2.591311688E+02  3.298290176E+02  2.709080808E+02  2.717233174E+02  4.516223609E-01 
        31  2.544088325E-02  1.165921105E-01  3.086849856E-02  8.133733276E+04  2.674096174E+02  3.294541149E+02  2.702928567E+02  2.745398855E+02  4.201768436E-01 
        32  2.674433127E-02  1.170738851E-01  3.352942364E-02  8.077606763E+04  2.752296841E+02  3.291050429E+02  2.697204356E+02  2.773518162E+02  3.913980382E-01 
        33  2.797950643E-02  1.175445507E-01  3.622298897E-02  8.026183594E+04  2.826940703E+02  3.288309171E+02  2.692710224E+02  2.797029790E+02  3.629060287E-01 
        34  2.916313541E-02  1.180056499E-01  3.893937175E-02  7.997759126E+04  2.897281390E+02  3.286887150E+02  2.690378820E+02  2.814133255E+02  3.341022908E-01 
        35  3.031249539E-02  1.184785399E-01  4.167042727E-02  8.009132053E+04  2.955727530E+02  3.287692878E+02  2.691698579E+02  2.821353472E+02  3.076604668E-01 
        36  3.139929926E-02  1.189405785E-01  4.442941843E-02  8.034951825E+04  3.011405870E+02  3.289111325E+02  2.694021735E+02  2.824482650E+02  2.812108994E-01 
        37  3.242013936E-02  1.193808800E-01  4.721660669E-02  8.086535261E+04  3.063500224E+02  3.292076793E+02  2.698881670E+02  2.817911511E+02  2.525743712E-01 
        38  3.340677803E-02  1.198011670E-01  5.002067675E-02  8.206157031E+04  3.090849100E+02  3.299470537E+02  2.711023519E+02  2.783706242E+02  2.259420948E-01 
        39  3.430413654E-02  1.201853153E-01  5.285529857E-02  8.367735034E+04  3.104688034E+02  3.309060421E+02  2.726810789E+02  2.735706806E+02  2.009044699E-01 
        40  3.515433510E-02  1.205874318E-01  5.570324370E-02  8.568079883E+04  3.105456944E+02  3.320391388E+02  2.745522842E+02  2.675397778E+02  1.781003326E-01 
        41  3.592907297E-02  1.209644065E-01  5.857535950E-02  8.799915137E+04  3.090686789E+02  3.333105879E+02  2.766593776E+02  2.603893356E+02  1.594652999E-01 
        42  3.664355424E-02  1.213334730E-01  6.146049591E-02  9.047107019E+04  3.061727715E+02  3.345752144E+02  2.787625136E+02  2.526955853E+02  1.468942126E-01 
        43  3.727845098E-02  1.217084379E-01  6.437276718E-02  9.281099951E+04  3.025098190E+02  3.357214069E+02  2.806751318E+02  2.455020962E+02  1.412796085E-01 
        44  3.781448665E-02  1.220744111E-01  6.730672953E-02  9.470865405E+04  2.988552742E+02  3.366913128E+02  2.822985306E+02  2.397029943E+02  1.418796722E-01 
        45  3.826762164E-02  1.224563704E-01  7.025293559E-02  9.599422687E+04  2.961427870E+02  3.373831561E+02  2.834593771E+02  2.359567471E+02  1.457121432E-01 
        46  3.856443464E-02  1.228195695E-01  7.317567491E-02  9.666746875E+04  2.945593414E+02  3.378180695E+02  2.841907959E+02  2.341811371E+02  1.508693583E-01 
        47  3.882754171E-02  1.231963568E-01  7.616928387E-02  9.688486243E+04  2.931218172E+02  3.384239298E+02  2.852123773E+02  2.325494429E+02  1.562223355E-01 
        48  3.896508106E-02  1.235573809E-01  7.913505459E-02  9.679063867E+04  2.896528358E+02  3.393974228E+02  2.868671761E+02  2.270012016E+02  1.605191156E-01 
        49  3.903512947E-02  1.239238609E-01  8.213137167E-02  9.661074878E+04  2.813272521E+02  3.411717100E+02  2.898966548E+02  2.119269242E+02  1.651759294E-01 
        50  3.900153017E-02  1.243001337E-01  8.510504302E-02  9.643126614E+04  2.660398608E+02  3.441913911E+02  2.950650742E+02  1.838526696E+02  1.706574429E-01 
        51  3.889299026E-02  1.246700891E-01  8.806950082E-02  9.633555133E+04  2.486623483E+02  3.478049958E+02  3.012941484E+02  1.389077203E+02  1.445613101E-01 
        52  3.870303970E-02  1.250405990E-01  9.105247242E-02  9.675717529E+04  2.405788450E+02  3.507900209E+02  3.064583454E+02  9.514993691E+01 -1.096234797E-02 
        53  3.847530202E-02  1.253810613E-01  9.402032493E-02  9.733456708E+04  2.352314568E+02  3.530096718E+02  3.103403516E+02  5.613633938E+01 -2.774267266E-01 
        54  3.809583015E-02  1.257752167E-01  9.695318516E-02  9.774248438E+04  2.299258881E+02  3.536591110E+02  3.114727173E+02  3.541642714E+01 -1.565323353E+00 
        55  3.767199372E-02  1.261489404E-01  9.992435767E-02  9.874979810E+04  2.393706083E+02  3.526797142E+02  3.097486520E+02  4.161927927E+01 -1.484164760E+00 
        56  3.723780727E-02  1.265196365E-01  1.028569506E-01  1.012483775E+05  2.452587574E+02  3.516448123E+02  3.079348586E+02  5.620458038E+01 -1.144653556E+00 
        57  3.672955052E-02  1.269046997E-01  1.057947981E-01  1.040931123E+05  2.468473580E+02  3.508126860E+02  3.064795742E+02  9.237820959E+01 -3.044829729E-01 
        58  3.615520807E-02  1.273091289E-01  1.087154776E-01  1.057752744E+05  2.529447775E+02  3.489769497E+02  3.032831507E+02  1.409411616E+02  5.667269067E-02 
        59  3.556812424E-02  1.277144368E-01  1.116309472E-01  1.066533240E+05  2.582597733E+02  3.461733255E+02  2.984282234E+02  1.800030557E+02  1.967154318E-01 
        60  3.495651588E-02  1.281329458E-01  1.145394580E-01  1.075027861E+05  2.613656292E+02  3.440410295E+02  2.947582583E+02  1.930457211E+02  2.213889789E-01 
        61  3.433795015E-02  1.285471243E-01  1.174457346E-01  1.080248715E+05  2.613309174E+02  3.434878283E+02  2.938095889E+02  1.905596631E+02  2.135256820E-01 
        62  3.376061330E-02  1.289460490E-01  1.203607660E-01  1.082697686E+05  2.632137945E+02  3.434520149E+02  2.937482991E+02  1.905099837E+02  2.027934412E-01 
        63  3.331803132E-02  1.293309423E-01  1.232882868E-01  1.082974821E+05  2.671958268E+02  3.433218414E+02  2.935256395E+02  1.945666612E+02  1.939041160E-01 
        64  3.310586596E-02  1.296649637E-01  1.262581306E-01  1.082108232E+05  2.707842259E+02  3.431513021E+02  2.932341168E+02  1.986219168E+02  1.879128806E-01 
        65  3.306639982E-02  1.299493947E-01  1.292495641E-01  1.080489602E+05  2.729536110E+02  3.430494828E+02  2.930601438E+02  2.014379155E+02  1.864859322E-01 
        66  3.322486525E-02  1.302097713E-01  1.322380794E-01  1.078309087E+05  2.741573651E+02  3.429822581E+02  2.929451644E+02  2.029066712E+02  1.864209530E-01 
        67  3.356462385E-02  1.304573038E-01  1.352130229E-01  1.075794868E+05  2.751254990E+02  3.429199967E+02  2.928388457E+02  2.042207295E+02  1.875675931E-01 
        68  3.400410102E-02  1.306751199E-01  1.381765647E-01  1.073004314E+05  2.762111127E+02  3.428260961E+02  2.926785033E+02  2.053950276E+02  1.874015648E-01 
        69  3.451963359E-02  1.308741206E-01  1.411278790E-01  1.069890013E+05  2.774426942E+02  3.427014203E+02  2.924656482E+02  2.068334124E+02  1.873522801E-01 
        70  3.508991352E-02  1.310576265E-01  1.440660380E-01  1.066665286E+05  2.786574042E+02  3.425660529E+02  2.922346177E+02  2.084098530E+02  1.879284678E-01 
        71  3.570211579E-02  1.312503676E-01  1.470000000E-01  1.063116943E+05  2.799677429E+02  3.424183960E+02  2.919825325E+02  2.103676929E+02  1.890380550E-01 
        72 -2.843361623E-02  1.708417341E-01 -4.258217492E-02  8.206105371E+04  1.837704630E+02  3.299854994E+02  2.711645012E+02  3.445699272E+02  1.008214127E+00 
        73 -2.838826984E-02  1.709653765E-01 -3.916427879E-02  8.207953223E+04  1.842098122E+02  3.299659216E+02  2.711325097E+02  3.447168980E+02  1.007049411E+00 
        74 -2.835908450E-02  1.711140563E-01 -3.574649433E-02  8.235941058E+04  1.838275446E+02  3.301356311E+02  2.714116268E+02  3.434022605E+02  1.006137660E+00 
        75 -2.838361088E-02  1.712589164E-01 -3.232950605E-02  8.286155029E+04  1.828812051E+02  3.304703169E+02  2.719623537E+02  3.425693932E+02  1.007799897E+00 
        76 -2.841360827E-02  1.714319125E-01 -2.891476756E-02  8.346478442E+04  1.823926110E+02  3.307612371E+02  2.724413099E+02  3.415762224E+02  1.007801609E+00 
        77 -2.833774301E-02  1.716334782E-01 -2.549995819E-02  8.409215396E+04  1.805292302E+02  3.311772554E+02  2.731269325E+02  3.389359646E+02  1.009598712E+00 
        78 -2.791452343E-02  1.719215161E-01 -2.212016887E-02  8.442947559E+04  1.801243057E+02  3.312951241E+02  2.733211184E+02  3.391278419E+02  1.011292726E+00 
        79 -2.700703325E-02  1.722886754E-01 -1.884820631E-02  8.428744189E+04  1.795780983E+02  3.312435970E+02  2.732361012E+02  3.400785189E+02  1.014827028E+00 
        80 -2.544395246E-02  1.727209334E-01 -1.584518523E-02  8.321455780E+04  1.815765159E+02  3.305766077E+02  2.721370306E+02  3.422395914E+02  1.011812642E+00 
        81 -2.351536464E-02  1.732363399E-01 -1.306823492E-02  8.135951968E+04  1.844938675E+02  3.296159758E+02  2.705582343E+02  3.490162504E+02  1.014046749E+00 
        82 -2.134527601E-02  1.737374909E-01 -1.047435973E-02  7.865377042E+04  1.911421162E+02  3.279743550E+02  2.678706084E+02  3.555930839E+02  1.003830356E+00 
        83 -1.897326710E-02  1.742189522E-01 -8.035177519E-03  7.557916064E+04  1.984250955E+02  3.261839805E+02  2.649546239E+02  3.647246981E+02  9.969513561E-01 
        84 -1.652827274E-02  1.746780172E-01 -5.688541800E-03  7.336426788E+04  2.057824836E+02  3.247812343E+02  2.626794629E+02  3.710700240E+02  9.847087990E-01 
        85 -1.397929867E-02  1.751251779E-01 -3.446989688E-03  7.268536865E+04  2.098987260E+02  3.243117499E+02  2.619207101E+02  3.741456413E+02  9.771153312E-01 
        86 -1.139011487E-02  1.755573757E-01 -1.256774906E-03  7.365987610E+04  2.114655931E+02  3.247956042E+02  2.627051492E+02  3.719179544E+02  9.672914576E-01 
        87 -8.734274343E-03  1.759085237E-01  8.667805443E-04  7.876391846E+04  2.043361458E+02  3.279985859E+02  2.679158392E+02  3.572135813E+02  9.628899740E-01 
        88 -6.073383534E-03  1.762548475E-01  2.984781313E-03  8.843420172E+04  1.905824020E+02  3.334251616E+02  2.768555934E+02  3.331604493E+02  9.683601395E-01 
        89 -3.359730182E-03  1.765819110E-01  5.053045394E-03  9.819317902E+04  1.760449680E+02  3.382305577E+02  2.848879383E+02  3.063794186E+02  9.817981320E-01 
        90 -6.741955509E-04  1.768270807E-01  7.130208361E-03  9.817331422E+04  1.646901224E+02  3.383236048E+02  2.850435431E+02  3.077247794E+02  1.022917505E+00 
        91  2.027043660E-03  1.770783858E-01  9.208570588E-03  7.906220863E+04  1.920697009E+02  3.280330807E+02  2.679742699E+02  3.556935742E+02  1.001918238E+00 
        92  4.731686997E-03  1.772422585E-01  1.127155269E-02  7.285625868E+04  2.140608115E+02  3.243558430E+02  2.619946080E+02  3.764992417E+02  9.676825331E-01 
        93  7.454465044E-03  1.773874983E-01  1.334309669E-02  7.345762889E+04  2.094920350E+02  3.247659371E+02  2.626557672E+02  3.728918979E+02  9.755210064E-01 
        94  1.015989937E-02  1.775222933E-01  1.545596277E-02  7.078087454E+04  2.174731078E+02  3.229867135E+02  2.597905343E+02  3.811360972E+02  9.659121935E-01 
        95  1.284858280E-02  1.775661421E-01  1.756817794E-02  6.730388684E+04  2.280934321E+02  3.207631017E+02  2.562264315E+02  3.921927581E+02  9.539815472E-01 
        96  1.551966693E-02  1.776138061E-01  1.970369132E-02  6.429613770E+04  2.374620452E+02  3.186875572E+02  2.529222534E+02  4.018263164E+02  9.438717188E-01 
        97  1.817410325E-02  1.776258069E-01  2.186017323E-02  6.176196033E+04  2.458737824E+02  3.168961296E+02  2.500855403E+02  4.088733501E+02  9.318491481E-01 
        98  2.080993586E-02  1.775631240E-01  2.403936301E-02  5.993880029E+04  2.535443473E+02  3.155862312E+02  2.480203624E+02  4.141983910E+02  9.184336215E-01 
        99  2.341570779E-02  1.774969016E-01  2.625394818E-02  5.951595801E+04  2.578811164E+02  3.153997326E+02  2.477280273E+02  4.150021601E+02  9.056044873E-01 
       100  2.600295182E-02  1.773818036E-01  2.848806157E-02  6.133309448E+04  2.583291349E+02  3.168666935E+02  2.500515499E+02  4.085658541E+02  8.896511272E-01 
       101  2.856627515E-02  1.771883875E-01  3.074502562E-02  6.670897412E+04  2.532351809E+02  3.207615881E+02  2.562809801E+02  3.924580412E+02  8.725287057E-01 
       102  3.110662233E-02  1.769811535E-01  3.302644514E-02  7.497495630E+04  2.447434893E+02  3.262941084E+02  2.652007513E+02  3.683694572E+02  8.519191556E-01 
       103  3.362247542E-02  1.767159818E-01  3.532849163E-02  8.171573511E+04  2.421147313E+02  3.302473354E+02  2.716188078E+02  3.509571819E+02  8.265761528E-01 
       104  3.610895472E-02  1.763647845E-01  3.765120331E-02  8.316651184E+04  2.478973186E+02  3.307459931E+02  2.724233794E+02  3.497254896E+02  8.046201887E-01 
       105  3.856497337E-02  1.759966372E-01  4.000321012E-02  8.067354230E+04  2.569694566E+02  3.292722734E+02  2.699990433E+02  3.573843591E+02  7.881274410E-01 
       106  4.103059304E-02  1.755360248E-01  4.234569910E-02  7.837257726E+04  2.638954812E+02  3.281737440E+02  2.681959571E+02  3.630160839E+02  7.750043206E-01 
       107  4.340106546E-02  1.750377176E-01  4.474435622E-02  7.902605142E+04  2.671048872E+02  3.286352849E+02  2.689527991E+02  3.615581030E+02  7.614125432E-01 
       108  4.575540032E-02  1.745445103E-01  4.717695363E-02  8.280235925E+04  2.665030303E+02  3.307680244E+02  2.724616332E+02  3.516391368E+02  7.450174978E-01 
       109  4.807037784E-02  1.739953488E-01  4.963532790E-02  8.889043457E+04  2.615386372E+02  3.341259708E+02  2.780256147E+02  3.350614319E+02  7.323869783E-01 
       110  5.034733117E-02  1.734133857E-01  5.212084081E-02  9.484786084E+04  2.574927597E+02  3.372030659E+02  2.831631317E+02  3.186436062E+02  7.186992951E-01 
       111  5.258765486E-02  1.728405975E-01  5.464144749E-02  9.890481885E+04  2.574212322E+02  3.391397419E+02  2.864203835E+02  3.077911072E+02  7.014128864E-01 
       112  5.479076840E-02  1.722430532E-01  5.718902978E-02  1.018273184E+05  2.578374109E+02  3.405358753E+02  2.887828226E+02  3.008383322E+02  6.892354973E-01 
       113  5.694737683E-02  1.716020731E-01  5.976586917E-02  1.049087310E+05  2.567686708E+02  3.420245328E+02  2.913132331E+02  2.923983097E+02  6.808899618E-01 
       114  5.911848447E-02  1.709340834E-01  6.233872565E-02  1.082671626E+05  2.553266660E+02  3.435340722E+02  2.938892733E+02  2.829578518E+02  6.727890066E-01 
       115  6.119351897E-02  1.703313828E-01  6.496775561E-02  1.109646599E+05  2.543843169E+02  3.446437550E+02  2.957911172E+02  2.760458336E+02  6.674506925E-01 
       116  6.319798910E-02  1.696485115E-01  6.765543605E-02  1.131198978E+05  2.532748480E+02  3.455315495E+02  2.973167524E+02  2.699089532E+02  6.638531713E-01 
       117  6.520189851E-02  1.689621155E-01  7.034628384E-02  1.151410972E+05  2.522045145E+02  3.463305073E+02  2.986931505E+02  2.646549797E+02  6.618270688E-01 
       118  6.717992039E-02  1.682884043E-01  7.305807409E-02  1.170129526E+05  2.507268620E+02  3.471619434E+02  3.001286879E+02  2.612491970E+02  6.639629193E-01 
       119  6.910755662E-02  1.675987334E-01  7.579818779E-02  1.184967504E+05  2.502364302E+02  3.477901947E+02  3.012159026E+02  2.584580624E+02  6.630676696E-01 
       120  7.101404689E-02  1.668389198E-01  7.852135391E-02  1.195823301E+05  2.476621259E+02  3.483433783E+02  3.021748247E+02  2.552217727E+02  6.699098325E-01 
