nodenumber     x-coordinate     y-coordinate     z-coordinate         pressure velocity-magnitude      sound-speed      temperature rel-velocity-magnitude relative-velocity-angle 
         1 -2.216901913E-02  1.039879580E-01 -4.300600202E-02  8.756032391E+04  1.538374648E+02  3.330566409E+02  2.762352342E+02  2.357192360E+02  8.598101739E-01 
         2 -2.197401757E-02  1.042260031E-01 -4.002397295E-02  8.747674008E+04  1.543863254E+02  3.330117828E+02  2.761608386E+02  2.363600501E+02  8.592723629E-01 
         3 -2.150271627E-02  1.045375264E-01 -3.708169353E-02  8.739316675E+04  1.549868307E+02  3.329636569E+02  2.760810258E+02  2.369914846E+02  8.584858878E-01 
         4 -2.072290556E-02  1.049359494E-01 -3.421635317E-02  8.725893604E+04  1.556869888E+02  3.328954306E+02  2.759678974E+02  2.377278607E+02  8.576134248E-01 
         5 -1.964621854E-02  1.053757771E-01 -3.145501365E-02  8.712254932E+04  1.564208159E+02  3.328257370E+02  2.758523822E+02  2.384759011E+02  8.566632550E-01 
         6 -1.833909717E-02  1.058829391E-01 -2.880182754E-02  8.700386865E+04  1.571358752E+02  3.327609997E+02  2.757450924E+02  2.393467107E+02  8.562694937E-01 
         7 -1.686396899E-02  1.064019756E-01 -2.624136390E-02  8.684920898E+04  1.579666028E+02  3.326752701E+02  2.756030359E+02  2.403586159E+02  8.557981346E-01 
         8 -1.524276490E-02  1.069101094E-01 -2.376908005E-02  8.664413416E+04  1.589468966E+02  3.325620904E+02  2.754155655E+02  2.414952044E+02  8.549765013E-01 
         9 -1.353040875E-02  1.074492491E-01 -2.136449246E-02  8.640507397E+04  1.602033265E+02  3.324278498E+02  2.751934054E+02  2.428465073E+02  8.534685438E-01 
        10 -1.175719847E-02  1.079385502E-01 -1.899452623E-02  8.615175201E+04  1.615207654E+02  3.322965651E+02  2.749761190E+02  2.440533710E+02  8.511495618E-01 
        11 -9.920451205E-03  1.084473482E-01 -1.667649769E-02  8.598042444E+04  1.626723509E+02  3.322293533E+02  2.748648381E+02  2.447708478E+02  8.479561578E-01 
        12 -8.053093039E-03  1.089314126E-01 -1.437870322E-02  8.611875974E+04  1.631345092E+02  3.323127465E+02  2.750027245E+02  2.445555357E+02  8.452049955E-01 
        13 -6.139911673E-03  1.093816015E-01 -1.211111235E-02  8.660580713E+04  1.630130615E+02  3.325397120E+02  2.753784599E+02  2.433397355E+02  8.422594909E-01 
        14 -4.213714023E-03  1.098625599E-01 -9.853315987E-03  8.752354395E+04  1.607144079E+02  3.330292435E+02  2.761899014E+02  2.406179552E+02  8.460336924E-01 
        15 -2.267252226E-03  1.102821410E-01 -7.616721013E-03  8.857605713E+04  1.565510578E+02  3.335895500E+02  2.771200686E+02  2.372130537E+02  8.578445688E-01 
        16 -3.058463972E-04  1.106716081E-01 -5.380345181E-03  8.942058740E+04  1.498623190E+02  3.340068779E+02  2.778140116E+02  2.344002194E+02  8.859619014E-01 
        17  1.649896870E-03  1.110991589E-01 -3.144821902E-03  8.726457056E+04  1.469819126E+02  3.328940344E+02  2.759689896E+02  2.433114841E+02  9.331232654E-01 
        18  3.605378217E-03  1.114680886E-01 -8.997268064E-04  7.578004590E+04  1.760499806E+02  3.262793312E+02  2.651094627E+02  2.859032278E+02  9.372666720E-01 
        19  5.548952344E-03  1.118349081E-01  1.356589372E-03  6.985873114E+04  2.102637154E+02  3.226055865E+02  2.591753547E+02  3.085839391E+02  8.445146591E-01 
        20  7.472030685E-03  1.121892539E-01  3.633809071E-03  7.288967982E+04  2.109595720E+02  3.247833847E+02  2.626877175E+02  2.970116029E+02  7.922464290E-01 
        21  9.366594022E-03  1.125505666E-01  5.932977735E-03  7.658565399E+04  2.082455205E+02  3.269546564E+02  2.662092621E+02  2.844686875E+02  7.575776242E-01 
        22  1.122147558E-02  1.129077905E-01  8.263617067E-03  7.893105132E+04  2.086105056E+02  3.283002606E+02  2.684038235E+02  2.762703421E+02  7.246804032E-01 
        23  1.303284284E-02  1.132507638E-01  1.062953057E-02  8.044798708E+04  2.114569957E+02  3.291597775E+02  2.698101512E+02  2.729530452E+02  6.983699404E-01 
        24  1.479928419E-02  1.136234762E-01  1.303021626E-02  8.160205676E+04  2.158252295E+02  3.298169446E+02  2.708884897E+02  2.699660621E+02  6.655326257E-01 
        25  1.649617427E-02  1.139938279E-01  1.547769530E-02  8.263730969E+04  2.207503126E+02  3.303807409E+02  2.718153992E+02  2.663733776E+02  6.274983822E-01 
        26  1.811807173E-02  1.143837002E-01  1.797032872E-02  8.336004553E+04  2.262921803E+02  3.307519670E+02  2.724263449E+02  2.636525984E+02  5.895426776E-01 
        27  1.968166241E-02  1.148013513E-01  2.049621310E-02  8.348391199E+04  2.332355981E+02  3.307924507E+02  2.724928396E+02  2.633980811E+02  5.532772094E-01 
        28  2.119101764E-02  1.152299366E-01  2.305322148E-02  8.298407835E+04  2.420762824E+02  3.304527478E+02  2.719334814E+02  2.659206897E+02  5.172446075E-01 
        29  2.266338778E-02  1.156643914E-01  2.563116057E-02  8.238656647E+04  2.506198601E+02  3.300665731E+02  2.712982453E+02  2.686315845E+02  4.835928706E-01 
        30  2.408077791E-02  1.161159634E-01  2.823658064E-02  8.188446588E+04  2.585084667E+02  3.297638590E+02  2.708006790E+02  2.711236780E+02  4.526956477E-01 
        31  2.544088325E-02  1.165921105E-01  3.086849856E-02  8.135270886E+04  2.665949016E+02  3.293998337E+02  2.702034655E+02  2.740721493E+02  4.227667255E-01 
        32  2.674433127E-02  1.170738851E-01  3.352942364E-02  8.078574841E+04  2.746959531E+02  3.290353289E+02  2.696057799E+02  2.772145205E+02  3.937206883E-01 
        33  2.797950643E-02  1.175445507E-01  3.622298897E-02  8.025743875E+04  2.825468570E+02  3.287468104E+02  2.691329757E+02  2.799739316E+02  3.646235823E-01 
        34  2.916313541E-02  1.180056499E-01  3.893937175E-02  7.996437013E+04  2.897304320E+02  3.286204090E+02  2.689261286E+02  2.817366372E+02  3.352666331E-01 
        35  3.031249539E-02  1.184785399E-01  4.167042727E-02  8.009385297E+04  2.954014599E+02  3.287686281E+02  2.691687013E+02  2.821019397E+02  3.085578994E-01 
        36  3.139929926E-02  1.189405785E-01  4.442941843E-02  8.036888214E+04  3.006489724E+02  3.290152889E+02  2.695726559E+02  2.820597933E+02  2.823444486E-01 
        37  3.242013936E-02  1.193808800E-01  4.721660669E-02  8.084692044E+04  3.057693051E+02  3.293263120E+02  2.700827141E+02  2.812261543E+02  2.534070932E-01 
        38  3.340677803E-02  1.198011670E-01  5.002067675E-02  8.200705676E+04  3.087281610E+02  3.299800224E+02  2.711563104E+02  2.781544071E+02  2.270015026E-01 
        39  3.430413654E-02  1.201853153E-01  5.285529857E-02  8.356571265E+04  3.104654655E+02  3.308532171E+02  2.725936937E+02  2.737051620E+02  2.014480839E-01 
        40  3.515433510E-02  1.205874318E-01  5.570324370E-02  8.549158936E+04  3.108534069E+02  3.319144001E+02  2.743456898E+02  2.680103340E+02  1.782718152E-01 
        41  3.592907297E-02  1.209644065E-01  5.857535950E-02  8.772788940E+04  3.096755509E+02  3.331286583E+02  2.763571897E+02  2.611487441E+02  1.591097927E-01 
        42  3.664355424E-02  1.213334730E-01  6.146049591E-02  9.014231653E+04  3.070368538E+02  3.343679371E+02  2.784172139E+02  2.536772060E+02  1.459405506E-01 
        43  3.727845098E-02  1.217084379E-01  6.437276718E-02  9.247292603E+04  3.035116968E+02  3.355458727E+02  2.803817978E+02  2.465274668E+02  1.396056344E-01 
        44  3.781448665E-02  1.220744111E-01  6.730672953E-02  9.441778735E+04  2.998675756E+02  3.365661945E+02  2.820889664E+02  2.406342936E+02  1.396511644E-01 
        45  3.826762164E-02  1.224563704E-01  7.025293559E-02  9.577990173E+04  2.969024067E+02  3.373241825E+02  2.833604271E+02  2.365954231E+02  1.437169795E-01 
        46  3.856443464E-02  1.228195695E-01  7.317567491E-02  9.654505859E+04  2.951073837E+02  3.378036652E+02  2.841665955E+02  2.345646362E+02  1.490407065E-01 
        47  3.882754171E-02  1.231963568E-01  7.616928387E-02  9.687857056E+04  2.934457948E+02  3.384625032E+02  2.852772499E+02  2.326841717E+02  1.546294231E-01 
        48  3.896508106E-02  1.235573809E-01  7.913505459E-02  9.691504492E+04  2.900308266E+02  3.394049225E+02  2.868776093E+02  2.270584450E+02  1.576118357E-01 
        49  3.903512947E-02  1.239238609E-01  8.213137167E-02  9.686965588E+04  2.817577722E+02  3.411095598E+02  2.897881873E+02  2.124260476E+02  1.623743935E-01 
        50  3.900153017E-02  1.243001337E-01  8.510504302E-02  9.678254385E+04  2.659555120E+02  3.441919813E+02  2.950659334E+02  1.844635660E+02  1.707218625E-01 
        51  3.889299026E-02  1.246700891E-01  8.806950082E-02  9.670315430E+04  2.467366571E+02  3.482552869E+02  3.020769892E+02  1.388388438E+02  1.638343675E-01 
        52  3.870303970E-02  1.250405990E-01  9.105247242E-02  9.662979272E+04  2.377784071E+02  3.511944714E+02  3.071657233E+02  9.632337451E+01  6.070024333E-02 
        53  3.847530202E-02  1.253810613E-01  9.402032493E-02  9.690186774E+04  2.341556149E+02  3.527031131E+02  3.098045646E+02  6.133271808E+01 -1.525833348E-01 
        54  3.809583015E-02  1.257752167E-01  9.695318516E-02  9.793188379E+04  2.322871590E+02  3.533909836E+02  3.110035286E+02  4.012465429E+01 -1.188983746E+00 
        55  3.767199372E-02  1.261489404E-01  9.992435767E-02  9.950318115E+04  2.420348058E+02  3.528734579E+02  3.100879335E+02  4.068286419E+01 -1.547440387E+00 
        56  3.723780727E-02  1.265196365E-01  1.028569506E-01  1.015796696E+05  2.515014086E+02  3.518690312E+02  3.083251778E+02  5.652397458E+01 -1.073447781E+00 
        57  3.672955052E-02  1.269046997E-01  1.057947981E-01  1.036511672E+05  2.455871933E+02  3.505055299E+02  3.059418511E+02  9.323624039E+01 -1.991927211E-01 
        58  3.615520807E-02  1.273091289E-01  1.087154776E-01  1.060130630E+05  2.405805688E+02  3.479758673E+02  3.015479994E+02  1.446015563E+02  2.004998256E-01 
        59  3.556812424E-02  1.277144368E-01  1.116309472E-01  1.076530171E+05  2.505638864E+02  3.451397974E+02  2.966490495E+02  1.778037115E+02  2.400810905E-01 
        60  3.495651588E-02  1.281329458E-01  1.145394580E-01  1.081846355E+05  2.594003701E+02  3.437974634E+02  2.943407788E+02  1.877495394E+02  2.144575007E-01 
        61  3.433795015E-02  1.285471243E-01  1.174457346E-01  1.082168369E+05  2.645002038E+02  3.433930855E+02  2.936474376E+02  1.914043906E+02  1.959946032E-01 
        62  3.376061330E-02  1.289460490E-01  1.203607660E-01  1.081214547E+05  2.679315054E+02  3.432223928E+02  2.933555510E+02  1.948194852E+02  1.881114796E-01 
        63  3.331803132E-02  1.293309423E-01  1.232882868E-01  1.080520479E+05  2.701524705E+02  3.431667970E+02  2.932604927E+02  1.976588184E+02  1.863107810E-01 
        64  3.310586596E-02  1.296649637E-01  1.262581306E-01  1.079971851E+05  2.716057241E+02  3.431725614E+02  2.932702782E+02  1.993636608E+02  1.853582115E-01 
        65  3.306639982E-02  1.299493947E-01  1.292495641E-01  1.079362951E+05  2.727637869E+02  3.431758778E+02  2.932759449E+02  2.005896433E+02  1.845308627E-01 
        66  3.322486525E-02  1.302097713E-01  1.322380794E-01  1.078100138E+05  2.739014791E+02  3.431163744E+02  2.931742516E+02  2.017950322E+02  1.839318085E-01 
        67  3.356462385E-02  1.304573038E-01  1.352130229E-01  1.075634270E+05  2.750835019E+02  3.429921865E+02  2.929620907E+02  2.031556686E+02  1.839500491E-01 
        68  3.400410102E-02  1.306751199E-01  1.381765647E-01  1.072418906E+05  2.761761959E+02  3.428451838E+02  2.927110572E+02  2.045598395E+02  1.845707323E-01 
        69  3.451963359E-02  1.308741206E-01  1.411278790E-01  1.069244828E+05  2.773967671E+02  3.426951113E+02  2.924548593E+02  2.062249496E+02  1.854129415E-01 
        70  3.508991352E-02  1.310576265E-01  1.440660380E-01  1.066541228E+05  2.786810899E+02  3.425671062E+02  2.922363663E+02  2.080574031E+02  1.865029843E-01 
        71  3.570211579E-02  1.312503676E-01  1.470000000E-01  1.063152783E+05  2.801228714E+02  3.424116364E+02  2.919712639E+02  2.102560081E+02  1.877012812E-01 
        72 -2.843361623E-02  1.708417341E-01 -4.258217492E-02  8.204874683E+04  1.836356020E+02  3.300028992E+02  2.711929455E+02  3.442429790E+02  1.008012626E+00 
        73 -2.838826984E-02  1.709653765E-01 -3.916427879E-02  8.205825690E+04  1.842682211E+02  3.299686046E+02  2.711366322E+02  3.448420706E+02  1.006971986E+00 
        74 -2.835908450E-02  1.711140563E-01 -3.574649433E-02  8.240203375E+04  1.837397226E+02  3.301831841E+02  2.714894104E+02  3.439486349E+02  1.007177064E+00 
        75 -2.838361088E-02  1.712589164E-01 -3.232950605E-02  8.296267529E+04  1.826248446E+02  3.305319147E+02  2.720634098E+02  3.419965334E+02  1.007579420E+00 
        76 -2.841360827E-02  1.714319125E-01 -2.891476756E-02  8.360859680E+04  1.819135251E+02  3.308738494E+02  2.726267152E+02  3.410513067E+02  1.008413363E+00 
        77 -2.833774301E-02  1.716334782E-01 -2.549995819E-02  8.412343015E+04  1.812622755E+02  3.311295204E+02  2.730481166E+02  3.402052597E+02  1.009197709E+00 
        78 -2.791452343E-02  1.719215161E-01 -2.212016887E-02  8.444362988E+04  1.801061754E+02  3.313121986E+02  2.733495321E+02  3.391203251E+02  1.011354648E+00 
        79 -2.700703325E-02  1.722886754E-01 -1.884820631E-02  8.431544263E+04  1.795516901E+02  3.312512798E+02  2.732491398E+02  3.395684700E+02  1.014083344E+00 
        80 -2.544395246E-02  1.727209334E-01 -1.584518523E-02  8.324443372E+04  1.809057611E+02  3.306678467E+02  2.722876849E+02  3.429330628E+02  1.015450902E+00 
        81 -2.351536464E-02  1.732363399E-01 -1.306823492E-02  8.137516191E+04  1.845406099E+02  3.295992320E+02  2.705312443E+02  3.483485742E+02  1.012974556E+00 
        82 -2.134527601E-02  1.737374909E-01 -1.047435973E-02  7.851660692E+04  1.914121395E+02  3.279062871E+02  2.677597626E+02  3.562800832E+02  1.004367305E+00 
        83 -1.897326710E-02  1.742189522E-01 -8.035177519E-03  7.552023340E+04  1.994471118E+02  3.260501882E+02  2.647364000E+02  3.655526625E+02  9.950566855E-01 
        84 -1.652827274E-02  1.746780172E-01 -5.688541800E-03  7.314443323E+04  2.068481820E+02  3.245930533E+02  2.623750315E+02  3.725181689E+02  9.839745890E-01 
        85 -1.397929867E-02  1.751251779E-01 -3.446989688E-03  7.260098267E+04  2.100802846E+02  3.242505236E+02  2.618211894E+02  3.746291404E+02  9.774059523E-01 
        86 -1.139011487E-02  1.755573757E-01 -1.256774906E-03  7.404941528E+04  2.090660486E+02  3.252592063E+02  2.634544964E+02  3.708890772E+02  9.730060436E-01 
        87 -8.734274343E-03  1.759085237E-01  8.667805443E-04  7.916953583E+04  2.034133843E+02  3.282323101E+02  2.683000956E+02  3.557825346E+02  9.629527172E-01 
        88 -6.073383534E-03  1.762548475E-01  2.984781313E-03  8.873710901E+04  1.906072681E+02  3.335947170E+02  2.771362964E+02  3.308715613E+02  9.648082335E-01 
        89 -3.359730182E-03  1.765819110E-01  5.053045394E-03  9.827681274E+04  1.752334609E+02  3.383349605E+02  2.850639062E+02  3.045693624E+02  9.825270735E-01 
        90 -6.741955509E-04  1.768270807E-01  7.130208361E-03  9.757909575E+04  1.675476882E+02  3.377630826E+02  2.840992884E+02  3.038589139E+02  1.009153063E+00 
        91  2.027043660E-03  1.770783858E-01  9.208570588E-03  7.926309757E+04  1.915470913E+02  3.283590219E+02  2.685035709E+02  3.597784716E+02  1.010685691E+00 
        92  4.731686997E-03  1.772422585E-01  1.127155269E-02  7.287491385E+04  2.141955404E+02  3.243260440E+02  2.619452004E+02  3.775521952E+02  9.691825111E-01 
        93  7.454465044E-03  1.773874983E-01  1.334309669E-02  7.342825931E+04  2.103807399E+02  3.245751019E+02  2.623471931E+02  3.741593955E+02  9.748609609E-01 
        94  1.015989937E-02  1.775222933E-01  1.545596277E-02  7.070275148E+04  2.167731493E+02  3.230525584E+02  2.598964888E+02  3.806711671E+02  9.669228154E-01 
        95  1.284858280E-02  1.775661421E-01  1.756817794E-02  6.711987405E+04  2.277405708E+02  3.207031682E+02  2.561309575E+02  3.916193488E+02  9.535117750E-01 
        96  1.551966693E-02  1.776138061E-01  1.970369132E-02  6.410463562E+04  2.364987719E+02  3.186678166E+02  2.528895993E+02  4.003763885E+02  9.435933810E-01 
        97  1.817410325E-02  1.776258069E-01  2.186017323E-02  6.172666589E+04  2.438692718E+02  3.170925579E+02  2.503946524E+02  4.063233299E+02  9.326843005E-01 
        98  2.080993586E-02  1.775631240E-01  2.403936301E-02  6.010824695E+04  2.521237526E+02  3.158447118E+02  2.484273796E+02  4.121706400E+02  9.187545683E-01 
        99  2.341570779E-02  1.774969016E-01  2.625394818E-02  5.969173645E+04  2.579796410E+02  3.155494423E+02  2.479631310E+02  4.146118002E+02  9.047249220E-01 
       100  2.600295182E-02  1.773818036E-01  2.848806157E-02  6.141484326E+04  2.596499491E+02  3.168617830E+02  2.500410385E+02  4.098865223E+02  8.884197548E-01 
       101  2.856627515E-02  1.771883875E-01  3.074502562E-02  6.675031030E+04  2.557973137E+02  3.204803324E+02  2.558278837E+02  3.954663057E+02  8.702919222E-01 
       102  3.110662233E-02  1.769811535E-01  3.302644514E-02  7.505182910E+04  2.471309605E+02  3.259409266E+02  2.646297398E+02  3.717022982E+02  8.501637429E-01 
       103  3.362247542E-02  1.767159818E-01  3.532849163E-02  8.175903528E+04  2.431192155E+02  3.300743971E+02  2.713338628E+02  3.535859861E+02  8.275359944E-01 
       104  3.610895472E-02  1.763647845E-01  3.765120331E-02  8.288870728E+04  2.477819059E+02  3.306511412E+02  2.722653723E+02  3.508912296E+02  8.065991057E-01 
       105  3.856497337E-02  1.759966372E-01  4.000321012E-02  8.025349698E+04  2.560284823E+02  3.292363243E+02  2.699387972E+02  3.578926140E+02  7.918963814E-01 
       106  4.103059304E-02  1.755360248E-01  4.234569910E-02  7.818399677E+04  2.631696979E+02  3.281638930E+02  2.681799032E+02  3.637225304E+02  7.786004649E-01 
       107  4.340106546E-02  1.750377176E-01  4.474435622E-02  7.909903520E+04  2.672046890E+02  3.285928694E+02  2.688835439E+02  3.616857582E+02  7.611293704E-01 
       108  4.575540032E-02  1.745445103E-01  4.717695363E-02  8.323427795E+04  2.657475495E+02  3.309183197E+02  2.727103612E+02  3.505411730E+02  7.454734202E-01 
       109  4.807037784E-02  1.739953488E-01  4.963532790E-02  8.935171313E+04  2.604671850E+02  3.343126822E+02  2.783348112E+02  3.334285851E+02  7.331083938E-01 
       110  5.034733117E-02  1.734133857E-01  5.212084081E-02  9.491298047E+04  2.574646225E+02  3.371294708E+02  2.830377617E+02  3.185438309E+02  7.185064964E-01 
       111  5.258765486E-02  1.728405975E-01  5.464144749E-02  9.863907129E+04  2.579493790E+02  3.388569717E+02  2.859424610E+02  3.090097103E+02  7.014359348E-01 
       112  5.479076840E-02  1.722430532E-01  5.718902978E-02  1.014510283E+05  2.583848133E+02  3.401625032E+02  2.881498137E+02  3.015467701E+02  6.883630063E-01 
       113  5.694737683E-02  1.716020731E-01  5.976586917E-02  1.045913632E+05  2.570766034E+02  3.416477656E+02  2.906715798E+02  2.929215591E+02  6.805267446E-01 
       114  5.911848447E-02  1.709340834E-01  6.233872565E-02  1.081359197E+05  2.554234456E+02  3.432750822E+02  2.934466350E+02  2.838068745E+02  6.736353670E-01 
       115  6.119351897E-02  1.703313828E-01  6.496775561E-02  1.109871323E+05  2.546555424E+02  3.446061611E+02  2.957265577E+02  2.772370238E+02  6.679710094E-01 
       116  6.319798910E-02  1.696485115E-01  6.765543605E-02  1.132494257E+05  2.545530086E+02  3.456146522E+02  2.974595423E+02  2.712188301E+02  6.604895741E-01 
       117  6.520189851E-02  1.689621155E-01  7.034628384E-02  1.153108672E+05  2.532613087E+02  3.466125822E+02  2.991797829E+02  2.651326962E+02  6.581605449E-01 
       118  6.717992039E-02  1.682884043E-01  7.305807409E-02  1.169575488E+05  2.520105820E+02  3.472589426E+02  3.002964697E+02  2.602608519E+02  6.575862486E-01 
       119  6.910755662E-02  1.675987334E-01  7.579818779E-02  1.183785107E+05  2.507426004E+02  3.477337594E+02  3.011180141E+02  2.564391122E+02  6.588099678E-01 
       120  7.101404689E-02  1.668389198E-01  7.852135391E-02  1.193916128E+05  2.481680727E+02  3.481902199E+02  3.019091847E+02  2.542751813E+02  6.668715822E-01 
