nodenumber     x-coordinate     y-coordinate     z-coordinate         pressure velocity-magnitude      sound-speed      temperature rel-velocity-magnitude relative-velocity-angle 
         1 -2.216901913E-02  1.039879580E-01 -4.300600202E-02  8.755046478E+04  1.539435744E+02  3.330509034E+02  2.762257520E+02  2.357945471E+02  8.594788779E-01 
         2 -2.197401757E-02  1.042260031E-01 -4.002397295E-02  8.746840314E+04  1.544267609E+02  3.330062338E+02  2.761516118E+02  2.363459575E+02  8.589707215E-01 
         3 -2.150271627E-02  1.045375264E-01 -3.708169353E-02  8.736404852E+04  1.550540339E+02  3.329495215E+02  2.760575452E+02  2.370232126E+02  8.582159868E-01 
         4 -2.072290556E-02  1.049359494E-01 -3.421635317E-02  8.724950171E+04  1.557454472E+02  3.328894296E+02  2.759578991E+02  2.377644434E+02  8.574049575E-01 
         5 -1.964621854E-02  1.053757771E-01 -3.145501365E-02  8.712718237E+04  1.564459395E+02  3.328265810E+02  2.758537450E+02  2.385212517E+02  8.566476069E-01 
         6 -1.833909717E-02  1.058829391E-01 -2.880182754E-02  8.697776880E+04  1.572187328E+02  3.327488213E+02  2.757248163E+02  2.394361281E+02  8.560985792E-01 
         7 -1.686396899E-02  1.064019756E-01 -2.624136390E-02  8.679807959E+04  1.580662751E+02  3.326536655E+02  2.755672007E+02  2.404497228E+02  8.555281628E-01 
         8 -1.524276490E-02  1.069101094E-01 -2.376908005E-02  8.658412134E+04  1.590562220E+02  3.325384760E+02  2.753763890E+02  2.415860467E+02  8.546557371E-01 
         9 -1.353040875E-02  1.074492491E-01 -2.136449246E-02  8.635125549E+04  1.602494810E+02  3.324118190E+02  2.751666467E+02  2.428625968E+02  8.532152222E-01 
        10 -1.175719847E-02  1.079385502E-01 -1.899452623E-02  8.615960004E+04  1.615100282E+02  3.323079071E+02  2.749946125E+02  2.439616387E+02  8.508222606E-01 
        11 -9.920451205E-03  1.084473482E-01 -1.667649769E-02  8.610375299E+04  1.625905708E+02  3.322792550E+02  2.749471931E+02  2.446718026E+02  8.480448877E-01 
        12 -8.053093039E-03  1.089314126E-01 -1.437870322E-02  8.628315475E+04  1.630671057E+02  3.323788774E+02  2.751121422E+02  2.443867105E+02  8.450292014E-01 
        13 -6.139911673E-03  1.093816015E-01 -1.211111235E-02  8.672910986E+04  1.625442724E+02  3.326193695E+02  2.755103498E+02  2.430515914E+02  8.437776603E-01 
        14 -4.213714023E-03  1.098625599E-01 -9.853315987E-03  8.745137500E+04  1.605950689E+02  3.330048695E+02  2.761494179E+02  2.406860876E+02  8.468207940E-01 
        15 -2.267252226E-03  1.102821410E-01 -7.616721013E-03  8.846573633E+04  1.565841904E+02  3.335438633E+02  2.770441999E+02  2.373239489E+02  8.580315709E-01 
        16 -3.058463972E-04  1.106716081E-01 -5.380345181E-03  8.947749902E+04  1.496382732E+02  3.340511112E+02  2.778876019E+02  2.340935683E+02  8.862044122E-01 
        17  1.649896870E-03  1.110991589E-01 -3.144821902E-03  8.724960522E+04  1.466653993E+02  3.329020844E+02  2.759805598E+02  2.436584115E+02  9.355295589E-01 
        18  3.605378217E-03  1.114680886E-01 -8.997268064E-04  7.596305334E+04  1.736149549E+02  3.264257712E+02  2.653464284E+02  2.841917419E+02  9.428901784E-01 
        19  5.548952344E-03  1.118349081E-01  1.356589372E-03  7.019480566E+04  2.073430003E+02  3.229294319E+02  2.596932154E+02  3.062116680E+02  8.501209011E-01 
        20  7.472030685E-03  1.121892539E-01  3.633809071E-03  7.262431583E+04  2.120658498E+02  3.245043854E+02  2.622354845E+02  2.978739802E+02  7.897078390E-01 
        21  9.366594022E-03  1.125505666E-01  5.932977735E-03  7.625929645E+04  2.086760818E+02  3.266977165E+02  2.657914119E+02  2.852134650E+02  7.576778284E-01 
        22  1.122147558E-02  1.129077905E-01  8.263617067E-03  7.872453678E+04  2.084736554E+02  3.280573159E+02  2.680065699E+02  2.767442563E+02  7.270278374E-01 
        23  1.303284284E-02  1.132507638E-01  1.062953057E-02  8.030452464E+04  2.112376858E+02  3.289161239E+02  2.694108439E+02  2.717547390E+02  6.948192548E-01 
        24  1.479928419E-02  1.136234762E-01  1.303021626E-02  8.145702364E+04  2.157690688E+02  3.296014936E+02  2.705347818E+02  2.682057148E+02  6.589675881E-01 
        25  1.649617427E-02  1.139938279E-01  1.547769530E-02  8.250173273E+04  2.207172077E+02  3.302182074E+02  2.715480685E+02  2.650428147E+02  6.225008182E-01 
        26  1.811807173E-02  1.143837002E-01  1.797032872E-02  8.329021118E+04  2.261107724E+02  3.306715646E+02  2.722936578E+02  2.629576969E+02  5.878077345E-01 
        27  1.968166241E-02  1.148013513E-01  2.049621310E-02  8.350005035E+04  2.329059994E+02  3.308107226E+02  2.725225759E+02  2.631027431E+02  5.539703034E-01 
        28  2.119101764E-02  1.152299366E-01  2.305322148E-02  8.304178336E+04  2.413444916E+02  3.306371025E+02  2.722365085E+02  2.654688237E+02  5.194960129E-01 
        29  2.266338778E-02  1.156643914E-01  2.563116057E-02  8.242592554E+04  2.502318604E+02  3.303084071E+02  2.716956232E+02  2.686620296E+02  4.857832498E-01 
        30  2.408077791E-02  1.161159634E-01  2.823658064E-02  8.186942877E+04  2.584543073E+02  3.300398800E+02  2.712540867E+02  2.714760780E+02  4.543998395E-01 
        31  2.544088325E-02  1.165921105E-01  3.086849856E-02  8.131876331E+04  2.665901978E+02  3.297364917E+02  2.707558360E+02  2.743925633E+02  4.241335541E-01 
        32  2.674433127E-02  1.170738851E-01  3.352942364E-02  8.076057776E+04  2.746107106E+02  3.294451222E+02  2.702777596E+02  2.774050925E+02  3.950199592E-01 
        33  2.797950643E-02  1.175445507E-01  3.622298897E-02  8.023658990E+04  2.824126488E+02  3.292210114E+02  2.699104686E+02  2.802032911E+02  3.663191953E-01 
        34  2.916313541E-02  1.180056499E-01  3.893937175E-02  7.994509087E+04  2.896206935E+02  3.290967786E+02  2.697071913E+02  2.821610684E+02  3.375543292E-01 
        35  3.031249539E-02  1.184785399E-01  4.167042727E-02  8.010710535E+04  2.954216399E+02  3.291089509E+02  2.697274095E+02  2.826212678E+02  3.104790043E-01 
        36  3.139929926E-02  1.189405785E-01  4.442941843E-02  8.041559088E+04  3.007113266E+02  3.292191262E+02  2.699078308E+02  2.824930881E+02  2.837252393E-01 
        37  3.242013936E-02  1.193808800E-01  4.721660669E-02  8.096979196E+04  3.057296521E+02  3.293458279E+02  2.701151711E+02  2.814798321E+02  2.546504644E-01 
        38  3.340677803E-02  1.198011670E-01  5.002067675E-02  8.219009140E+04  3.085438972E+02  3.299401963E+02  2.710908790E+02  2.781081625E+02  2.277682540E-01 
        39  3.430413654E-02  1.201853153E-01  5.285529857E-02  8.374706128E+04  3.102131500E+02  3.308793201E+02  2.726368427E+02  2.735028915E+02  2.019914286E-01 
        40  3.515433510E-02  1.205874318E-01  5.570324370E-02  8.562502197E+04  3.106766281E+02  3.319504051E+02  2.744050865E+02  2.678476601E+02  1.785498988E-01 
        41  3.592907297E-02  1.209644065E-01  5.857535950E-02  8.773889160E+04  3.097301669E+02  3.331028786E+02  2.763142529E+02  2.612047253E+02  1.589930607E-01 
        42  3.664355424E-02  1.213334730E-01  6.146049591E-02  8.997104211E+04  3.074372878E+02  3.342704320E+02  2.782545547E+02  2.540861421E+02  1.452755425E-01 
        43  3.727845098E-02  1.217084379E-01  6.437276718E-02  9.211099902E+04  3.043462181E+02  3.353997774E+02  2.801372309E+02  2.472988729E+02  1.378470021E-01 
        44  3.781448665E-02  1.220744111E-01  6.730672953E-02  9.390429663E+04  3.011096220E+02  3.363511639E+02  2.817283802E+02  2.416742430E+02  1.365342909E-01 
        45  3.826762164E-02  1.224563704E-01  7.025293559E-02  9.516333685E+04  2.982670825E+02  3.370668080E+02  2.829281967E+02  2.375432979E+02  1.393966468E-01 
        46  3.856443464E-02  1.228195695E-01  7.317567491E-02  9.589360547E+04  2.961759720E+02  3.375728607E+02  2.837781219E+02  2.350182800E+02  1.443210356E-01 
        47  3.882754171E-02  1.231963568E-01  7.616928387E-02  9.622297351E+04  2.947963381E+02  3.381312395E+02  2.847190552E+02  2.337321365E+02  1.506193951E-01 
        48  3.896508106E-02  1.235573809E-01  7.913505459E-02  9.629702930E+04  2.913714256E+02  3.390576477E+02  2.862937393E+02  2.284771194E+02  1.554711349E-01 
        49  3.903512947E-02  1.239238609E-01  8.213137167E-02  9.633012708E+04  2.831029370E+02  3.408486896E+02  2.893489847E+02  2.144247981E+02  1.615577007E-01 
        50  3.900153017E-02  1.243001337E-01  8.510504302E-02  9.630858197E+04  2.691128902E+02  3.437630041E+02  2.943296775E+02  1.890205369E+02  1.624994306E-01 
        51  3.889299026E-02  1.246700891E-01  8.806950082E-02  9.617630481E+04  2.534120057E+02  3.472141764E+02  3.002736809E+02  1.496458874E+02  1.411176712E-01 
        52  3.870303970E-02  1.250405990E-01  9.105247242E-02  9.633814868E+04  2.439733205E+02  3.501106448E+02  3.052791228E+02  1.130684577E+02  6.688313611E-02 
        53  3.847530202E-02  1.253810613E-01  9.402032493E-02  9.708913730E+04  2.417029754E+02  3.520157374E+02  3.086034647E+02  8.036462252E+01 -2.022887187E-01 
        54  3.809583015E-02  1.257752167E-01  9.695318516E-02  9.918920313E+04  2.399437294E+02  3.532654572E+02  3.107865677E+02  5.369805479E+01 -6.600978151E-01 
        55  3.767199372E-02  1.261489404E-01  9.992435767E-02  1.017301218E+05  2.395059705E+02  3.538214579E+02  3.117564998E+02  4.760851550E+01 -5.989480875E-01 
        56  3.723780727E-02  1.265196365E-01  1.028569506E-01  1.041692842E+05  2.374608372E+02  3.536315345E+02  3.114214143E+02  6.029659265E+01 -2.183684635E-01 
        57  3.672955052E-02  1.269046997E-01  1.057947981E-01  1.059246691E+05  2.376119039E+02  3.522128501E+02  3.089340725E+02  9.084968066E+01  1.567025983E-02 
        58  3.615520807E-02  1.273091289E-01  1.087154776E-01  1.070257461E+05  2.433497601E+02  3.496274328E+02  3.044218445E+02  1.300994954E+02  1.294927830E-01 
        59  3.556812424E-02  1.277144368E-01  1.116309472E-01  1.074857580E+05  2.534546194E+02  3.466179287E+02  2.992010872E+02  1.653626245E+02  1.782468876E-01 
        60  3.495651588E-02  1.281329458E-01  1.145394580E-01  1.076132803E+05  2.625963063E+02  3.443217072E+02  2.952426715E+02  1.874610772E+02  1.937654628E-01 
        61  3.433795015E-02  1.285471243E-01  1.174457346E-01  1.077055808E+05  2.679781747E+02  3.432288098E+02  2.933671184E+02  1.971755033E+02  1.947988023E-01 
        62  3.376061330E-02  1.289460490E-01  1.203607660E-01  1.077928414E+05  2.705134735E+02  3.429457498E+02  2.928827267E+02  2.001629374E+02  1.911844092E-01 
        63  3.331803132E-02  1.293309423E-01  1.232882868E-01  1.078386390E+05  2.719692725E+02  3.429487193E+02  2.928877424E+02  2.010052727E+02  1.870742717E-01 
        64  3.310586596E-02  1.296649637E-01  1.262581306E-01  1.078068091E+05  2.730244114E+02  3.429879029E+02  2.929547184E+02  2.013888491E+02  1.838727791E-01 
        65  3.306639982E-02  1.299493947E-01  1.292495641E-01  1.077020388E+05  2.738780296E+02  3.429944602E+02  2.929659479E+02  2.018066900E+02  1.820287103E-01 
        66  3.322486525E-02  1.302097713E-01  1.322380794E-01  1.075515518E+05  2.747331332E+02  3.429513991E+02  2.928923407E+02  2.026035715E+02  1.817124579E-01 
        67  3.356462385E-02  1.304573038E-01  1.352130229E-01  1.073867378E+05  2.756640852E+02  3.428827221E+02  2.927750696E+02  2.037132004E+02  1.823854881E-01 
        68  3.400410102E-02  1.306751199E-01  1.381765647E-01  1.071997510E+05  2.766273422E+02  3.428003030E+02  2.926343746E+02  2.049869447E+02  1.833477851E-01 
        69  3.451963359E-02  1.308741206E-01  1.411278790E-01  1.069646094E+05  2.776147728E+02  3.427097125E+02  2.924797537E+02  2.064277384E+02  1.848100713E-01 
        70  3.508991352E-02  1.310576265E-01  1.440660380E-01  1.066933043E+05  2.787545896E+02  3.425892386E+02  2.922741125E+02  2.080710797E+02  1.860983998E-01 
        71  3.570211579E-02  1.312503676E-01  1.470000000E-01  1.063210010E+05  2.800751762E+02  3.424417686E+02  2.920235367E+02  2.099811954E+02  1.869982313E-01 
        72 -2.843361623E-02  1.708417341E-01 -4.258217492E-02  8.203363745E+04  1.837783995E+02  3.299698076E+02  2.711385603E+02  3.443160696E+02  1.007635213E+00 
        73 -2.838826984E-02  1.709653765E-01 -3.916427879E-02  8.199563611E+04  1.842381647E+02  3.299546387E+02  2.711136231E+02  3.446246567E+02  1.006624019E+00 
        74 -2.835908450E-02  1.711140563E-01 -3.574649433E-02  8.231392249E+04  1.838653586E+02  3.301512594E+02  2.714369259E+02  3.437709718E+02  1.006360759E+00 
        75 -2.838361088E-02  1.712589164E-01 -3.232950605E-02  8.300735693E+04  1.829585013E+02  3.305343447E+02  2.720673189E+02  3.422909870E+02  1.006833304E+00 
        76 -2.841360827E-02  1.714319125E-01 -2.891476756E-02  8.385612512E+04  1.812542620E+02  3.310345869E+02  2.728913436E+02  3.399744639E+02  1.008598216E+00 
        77 -2.833774301E-02  1.716334782E-01 -2.549995819E-02  8.446671756E+04  1.801115044E+02  3.313598418E+02  2.734278079E+02  3.387471303E+02  1.010418402E+00 
        78 -2.791452343E-02  1.719215161E-01 -2.212016887E-02  8.462889844E+04  1.794231901E+02  3.314485130E+02  2.735741634E+02  3.384393921E+02  1.012298595E+00 
        79 -2.700703325E-02  1.722886754E-01 -1.884820631E-02  8.428096484E+04  1.795859976E+02  3.312344637E+02  2.732209749E+02  3.398506727E+02  1.014216430E+00 
        80 -2.544395246E-02  1.727209334E-01 -1.584518523E-02  8.312145813E+04  1.813828589E+02  3.305724978E+02  2.721301827E+02  3.432016678E+02  1.013972958E+00 
        81 -2.351536464E-02  1.732363399E-01 -1.306823492E-02  8.107960173E+04  1.854034823E+02  3.294105210E+02  2.702208393E+02  3.490976968E+02  1.010918048E+00 
        82 -2.134527601E-02  1.737374909E-01 -1.047435973E-02  7.830427075E+04  1.918615574E+02  3.277895535E+02  2.675683808E+02  3.571354101E+02  1.004075608E+00 
        83 -1.897326710E-02  1.742189522E-01 -8.035177519E-03  7.532952985E+04  1.998583846E+02  3.259917548E+02  2.646414104E+02  3.657622235E+02  9.938753531E-01 
        84 -1.652827274E-02  1.746780172E-01 -5.688541800E-03  7.307467120E+04  2.067657721E+02  3.245947943E+02  2.623777149E+02  3.724137225E+02  9.839609778E-01 
        85 -1.397929867E-02  1.751251779E-01 -3.446989688E-03  7.251947815E+04  2.098277106E+02  3.242463408E+02  2.618142629E+02  3.743410492E+02  9.775005188E-01 
        86 -1.139011487E-02  1.755573757E-01 -1.256774906E-03  7.419997925E+04  2.085795968E+02  3.253034964E+02  2.635256329E+02  3.701352158E+02  9.729973488E-01 
        87 -8.734274343E-03  1.759085237E-01  8.667805443E-04  7.956745477E+04  2.020576837E+02  3.285819886E+02  2.688689027E+02  3.557991800E+02  9.671829306E-01 
        88 -6.073383534E-03  1.762548475E-01  2.984781313E-03  8.894431470E+04  1.905542829E+02  3.337839153E+02  2.774487174E+02  3.295842562E+02  9.621380502E-01 
        89 -3.359730182E-03  1.765819110E-01  5.053045394E-03  9.840209613E+04  1.759557250E+02  3.384282501E+02  2.852203053E+02  3.040305736E+02  9.792790450E-01 
        90 -6.741955509E-04  1.768270807E-01  7.130208361E-03  9.785584512E+04  1.646574525E+02  3.382933000E+02  2.849934725E+02  3.064553995E+02  1.022818865E+00 
        91  2.027043660E-03  1.770783858E-01  9.208570588E-03  7.939127092E+04  1.920406651E+02  3.281582115E+02  2.681744173E+02  3.562916421E+02  1.002289969E+00 
        92  4.731686997E-03  1.772422585E-01  1.127155269E-02  7.208000467E+04  2.148895666E+02  3.239534878E+02  2.613427704E+02  3.778168151E+02  9.671735010E-01 
        93  7.454465044E-03  1.773874983E-01  1.334309669E-02  7.268652654E+04  2.110347866E+02  3.243066826E+02  2.619128731E+02  3.761530434E+02  9.766008251E-01 
        94  1.015989937E-02  1.775222933E-01  1.545596277E-02  7.042144796E+04  2.170225398E+02  3.230122911E+02  2.598302511E+02  3.824000091E+02  9.695544966E-01 
        95  1.284858280E-02  1.775661421E-01  1.756817794E-02  6.707400055E+04  2.275565747E+02  3.208179392E+02  2.563135309E+02  3.918633561E+02  9.545811578E-01 
        96  1.551966693E-02  1.776138061E-01  1.970369132E-02  6.408416479E+04  2.372174728E+02  3.186708958E+02  2.528948028E+02  4.008206549E+02  9.421359086E-01 
        97  1.817410325E-02  1.776258069E-01  2.186017323E-02  6.167357104E+04  2.457874751E+02  3.168956885E+02  2.500832491E+02  4.082517953E+02  9.303952986E-01 
        98  2.080993586E-02  1.775631240E-01  2.403936301E-02  6.007403455E+04  2.527063746E+02  3.157870812E+02  2.483334599E+02  4.131054840E+02  9.185206313E-01 
        99  2.341570779E-02  1.774969016E-01  2.625394818E-02  5.979246143E+04  2.572567143E+02  3.156418333E+02  2.481057663E+02  4.142798853E+02  9.059635997E-01 
       100  2.600295182E-02  1.773818036E-01  2.848806157E-02  6.189284058E+04  2.577102365E+02  3.171715984E+02  2.505341043E+02  4.085587063E+02  8.915205300E-01 
       101  2.856627515E-02  1.771883875E-01  3.074502562E-02  6.764169604E+04  2.522967997E+02  3.211222916E+02  2.568550196E+02  3.921532545E+02  8.742731921E-01 
       102  3.110662233E-02  1.769811535E-01  3.302644514E-02  7.562574854E+04  2.452241802E+02  3.261795206E+02  2.650050812E+02  3.698138247E+02  8.519474734E-01 
       103  3.362247542E-02  1.767159818E-01  3.532849163E-02  8.129674646E+04  2.436059594E+02  3.295249386E+02  2.704241114E+02  3.541941900E+02  8.265557550E-01 
       104  3.610895472E-02  1.763647845E-01  3.765120331E-02  8.172751440E+04  2.499075334E+02  3.296994209E+02  2.706989307E+02  3.536216083E+02  8.042946253E-01 
       105  3.856497337E-02  1.759966372E-01  4.000321012E-02  7.934230453E+04  2.588771540E+02  3.283449696E+02  2.684780452E+02  3.612006279E+02  7.883432778E-01 
       106  4.103059304E-02  1.755360248E-01  4.234569910E-02  7.791566360E+04  2.650397415E+02  3.276971735E+02  2.674170029E+02  3.653418692E+02  7.753538909E-01 
       107  4.340106546E-02  1.750377176E-01  4.474435622E-02  7.946742601E+04  2.667893652E+02  3.287690580E+02  2.691736215E+02  3.609213943E+02  7.610595671E-01 
       108  4.575540032E-02  1.745445103E-01  4.717695363E-02  8.420468164E+04  2.638849998E+02  3.315071931E+02  2.736828489E+02  3.479947643E+02  7.471161922E-01 
       109  4.807037784E-02  1.739953488E-01  4.963532790E-02  9.039576196E+04  2.592012672E+02  3.348038158E+02  2.791511631E+02  3.307344809E+02  7.327741440E-01 
       110  5.034733117E-02  1.734133857E-01  5.212084081E-02  9.518918115E+04  2.576453381E+02  3.371973019E+02  2.831495247E+02  3.177731228E+02  7.163230367E-01 
       111  5.258765486E-02  1.728405975E-01  5.464144749E-02  9.830236084E+04  2.587856655E+02  3.387063103E+02  2.856882896E+02  3.101453800E+02  7.001338415E-01 
       112  5.479076840E-02  1.722430532E-01  5.718902978E-02  1.012313660E+05  2.591843538E+02  3.401754313E+02  2.881720285E+02  3.029053240E+02  6.875168215E-01 
       113  5.694737683E-02  1.716020731E-01  5.976586917E-02  1.044067148E+05  2.584250093E+02  3.417479541E+02  2.908420417E+02  2.940689151E+02  6.770718410E-01 
       114  5.911848447E-02  1.709340834E-01  6.233872565E-02  1.074179308E+05  2.574910149E+02  3.431813877E+02  2.932859552E+02  2.859965183E+02  6.688078200E-01 
       115  6.119351897E-02  1.703313828E-01  6.496775561E-02  1.099743813E+05  2.568110986E+02  3.443105116E+02  2.952191820E+02  2.784262404E+02  6.612466238E-01 
       116  6.319798910E-02  1.696485115E-01  6.765543605E-02  1.123754053E+05  2.560292492E+02  3.453475771E+02  2.969999547E+02  2.716285181E+02  6.552710636E-01 
       117  6.520189851E-02  1.689621155E-01  7.034628384E-02  1.150960361E+05  2.543089600E+02  3.465427179E+02  2.990592623E+02  2.646378098E+02  6.534146834E-01 
       118  6.717992039E-02  1.682884043E-01  7.305807409E-02  1.176610156E+05  2.522208881E+02  3.476233482E+02  3.009269705E+02  2.586360874E+02  6.548065394E-01 
       119  6.910755662E-02  1.675987334E-01  7.579818779E-02  1.190314467E+05  2.512327895E+02  3.481615849E+02  3.018594851E+02  2.548448265E+02  6.549327294E-01 
       120  7.101404689E-02  1.668389198E-01  7.852135391E-02  1.202108458E+05  2.476040841E+02  3.487147205E+02  3.028194325E+02  2.515684860E+02  6.662903540E-01 
