nodenumber     x-coordinate     y-coordinate     z-coordinate         pressure velocity-magnitude      sound-speed      temperature rel-velocity-magnitude relative-velocity-angle 
         1 -2.216901913E-02  1.039879580E-01 -4.300600202E-02  8.753158002E+04  1.538102066E+02  3.330612782E+02  2.762430080E+02  2.355908770E+02  8.595839553E-01 
         2 -2.197401757E-02  1.042260031E-01 -4.002397295E-02  8.745736826E+04  1.545793842E+02  3.329842672E+02  2.761152104E+02  2.363343340E+02  8.581345428E-01 
         3 -2.150271627E-02  1.045375264E-01 -3.708169353E-02  8.734229871E+04  1.550700196E+02  3.329398444E+02  2.760415757E+02  2.371680584E+02  8.586823149E-01 
         4 -2.072290556E-02  1.049359494E-01 -3.421635317E-02  8.723947974E+04  1.554946485E+02  3.329090586E+02  2.759905686E+02  2.377181869E+02  8.587601669E-01 
         5 -1.964621854E-02  1.053757771E-01 -3.145501365E-02  8.707956177E+04  1.562625289E+02  3.328209362E+02  2.758444419E+02  2.381567974E+02  8.565824535E-01 
         6 -1.833909717E-02  1.058829391E-01 -2.880182754E-02  8.692147363E+04  1.573098655E+02  3.327094936E+02  2.756597304E+02  2.396163630E+02  8.563405704E-01 
         7 -1.686396899E-02  1.064019756E-01 -2.624136390E-02  8.678587085E+04  1.582309685E+02  3.326232967E+02  2.755169163E+02  2.405543609E+02  8.550201543E-01 
         8 -1.524276490E-02  1.069101094E-01 -2.376908005E-02  8.660972827E+04  1.590953798E+02  3.325395851E+02  2.753783536E+02  2.415043473E+02  8.543117717E-01 
         9 -1.353040875E-02  1.074492491E-01 -2.136449246E-02  8.634023340E+04  1.602070878E+02  3.323991628E+02  2.751458359E+02  2.426980736E+02  8.529667631E-01 
        10 -1.175719847E-02  1.079385502E-01 -1.899452623E-02  8.616059833E+04  1.612578942E+02  3.323226850E+02  2.750191751E+02  2.436183708E+02  8.509491691E-01 
        11 -9.920451205E-03  1.084473482E-01 -1.667649769E-02  8.610617538E+04  1.624213319E+02  3.322901670E+02  2.749652867E+02  2.447128795E+02  8.491581080E-01 
        12 -8.053093039E-03  1.089314126E-01 -1.437870322E-02  8.630238693E+04  1.627982347E+02  3.324039789E+02  2.751537385E+02  2.445446584E+02  8.470965251E-01 
        13 -6.139911673E-03  1.093816015E-01 -1.211111235E-02  8.682150806E+04  1.625152454E+02  3.326451998E+02  2.755533290E+02  2.429956813E+02  8.436833229E-01 
        14 -4.213714023E-03  1.098625599E-01 -9.853315987E-03  8.763725830E+04  1.606113272E+02  3.330580311E+02  2.762378349E+02  2.406370115E+02  8.467408009E-01 
        15 -2.267252226E-03  1.102821410E-01 -7.616721013E-03  8.856362988E+04  1.561377268E+02  3.336166649E+02  2.771651783E+02  2.372860250E+02  8.605604097E-01 
        16 -3.058463972E-04  1.106716081E-01 -5.380345181E-03  8.953735449E+04  1.493895779E+02  3.340938578E+02  2.779589024E+02  2.340137572E+02  8.877443690E-01 
        17  1.649896870E-03  1.110991589E-01 -3.144821902E-03  8.737830640E+04  1.461761088E+02  3.329710255E+02  2.760946577E+02  2.414873669E+02  9.318276560E-01 
        18  3.605378217E-03  1.114680886E-01 -8.997268064E-04  7.565664526E+04  1.770886543E+02  3.260905018E+02  2.648028750E+02  2.870050817E+02  9.372771345E-01 
        19  5.548952344E-03  1.118349081E-01  1.356589372E-03  7.007244482E+04  2.065235661E+02  3.231498570E+02  2.600483546E+02  3.060818825E+02  8.539690138E-01 
        20  7.472030685E-03  1.121892539E-01  3.633809071E-03  7.302851462E+04  2.109825884E+02  3.248332844E+02  2.627704992E+02  2.946902438E+02  7.832547300E-01 
        21  9.366594022E-03  1.125505666E-01  5.932977735E-03  7.667741327E+04  2.049876356E+02  3.273979158E+02  2.669335914E+02  2.798180435E+02  7.558642258E-01 
        22  1.122147558E-02  1.129077905E-01  8.263617067E-03  7.896258891E+04  2.054580139E+02  3.287472106E+02  2.691365401E+02  2.736596341E+02  7.309278016E-01 
        23  1.303284284E-02  1.132507638E-01  1.062953057E-02  8.049820719E+04  2.091574574E+02  3.295134825E+02  2.703914761E+02  2.684129572E+02  6.941096963E-01 
        24  1.479928419E-02  1.136234762E-01  1.303021626E-02  8.169482214E+04  2.140089824E+02  3.300753020E+02  2.713142461E+02  2.651409739E+02  6.579266863E-01 
        25  1.649617427E-02  1.139938279E-01  1.547769530E-02  8.276888556E+04  2.189075642E+02  3.305895090E+02  2.721598725E+02  2.628166234E+02  6.247189152E-01 
        26  1.811807173E-02  1.143837002E-01  1.797032872E-02  8.350944775E+04  2.246612058E+02  3.309124546E+02  2.726910524E+02  2.617498798E+02  5.917769391E-01 
        27  1.968166241E-02  1.148013513E-01  2.049621310E-02  8.360063269E+04  2.320722980E+02  3.308978009E+02  2.726667399E+02  2.626676831E+02  5.571223679E-01 
        28  2.119101764E-02  1.152299366E-01  2.305322148E-02  8.307761891E+04  2.406656941E+02  3.305840924E+02  2.721502132E+02  2.650118615E+02  5.215701605E-01 
        29  2.266338778E-02  1.156643914E-01  2.563116057E-02  8.245866339E+04  2.491229734E+02  3.302215590E+02  2.715536388E+02  2.674707031E+02  4.876890315E-01 
        30  2.408077791E-02  1.161159634E-01  2.823658064E-02  8.191107123E+04  2.577513497E+02  3.298214462E+02  2.708960257E+02  2.709428389E+02  4.564243769E-01 
        31  2.544088325E-02  1.165921105E-01  3.086849856E-02  8.133509778E+04  2.656789622E+02  3.295203876E+02  2.704016833E+02  2.738567634E+02  4.269320020E-01 
        32  2.674433127E-02  1.170738851E-01  3.352942364E-02  8.073102271E+04  2.730631788E+02  3.293112879E+02  2.700584831E+02  2.759543443E+02  3.975119223E-01 
        33  2.797950643E-02  1.175445507E-01  3.622298897E-02  8.016806253E+04  2.810937179E+02  3.290115324E+02  2.695672404E+02  2.784053676E+02  3.663139495E-01 
        34  2.916313541E-02  1.180056499E-01  3.893937175E-02  7.984166266E+04  2.897013745E+02  3.286507742E+02  2.689765852E+02  2.814473212E+02  3.344673396E-01 
        35  3.031249539E-02  1.184785399E-01  4.167042727E-02  7.995357510E+04  2.958247646E+02  3.287372265E+02  2.691179695E+02  2.822935368E+02  3.071416822E-01 
        36  3.139929926E-02  1.189405785E-01  4.442941843E-02  8.022285962E+04  3.006948897E+02  3.290648756E+02  2.696542068E+02  2.818936850E+02  2.814723072E-01 
        37  3.242013936E-02  1.193808800E-01  4.721660669E-02  8.075295216E+04  3.059413146E+02  3.294059375E+02  2.702137534E+02  2.811808916E+02  2.522799783E-01 
        38  3.340677803E-02  1.198011670E-01  5.002067675E-02  8.207798245E+04  3.088697098E+02  3.302121344E+02  2.715390904E+02  2.778456786E+02  2.249645741E-01 
        39  3.430413654E-02  1.201853153E-01  5.285529857E-02  8.385305493E+04  3.103274307E+02  3.312543106E+02  2.732558584E+02  2.729766502E+02  1.992383180E-01 
        40  3.515433510E-02  1.205874318E-01  5.570324370E-02  8.596730469E+04  3.106431866E+02  3.323705463E+02  2.751005688E+02  2.671746311E+02  1.759860385E-01 
        41  3.592907297E-02  1.209644065E-01  5.857535950E-02  8.834070190E+04  3.092435341E+02  3.336162891E+02  2.771670470E+02  2.604655905E+02  1.587105156E-01 
        42  3.664355424E-02  1.213334730E-01  6.146049591E-02  9.081271606E+04  3.061914821E+02  3.348710175E+02  2.792555628E+02  2.529250250E+02  1.476509161E-01 
        43  3.727845098E-02  1.217084379E-01  6.437276718E-02  9.307849756E+04  3.023628407E+02  3.359403429E+02  2.810411129E+02  2.457018280E+02  1.429575705E-01 
        44  3.781448665E-02  1.220744111E-01  6.730672953E-02  9.481931836E+04  2.985567150E+02  3.367712984E+02  2.824323597E+02  2.398790898E+02  1.444690377E-01 
        45  3.826762164E-02  1.224563704E-01  7.025293559E-02  9.591307404E+04  2.957259622E+02  3.372886620E+02  2.833002851E+02  2.360143646E+02  1.486341604E-01 
        46  3.856443464E-02  1.228195695E-01  7.317567491E-02  9.642651172E+04  2.937419739E+02  3.375939636E+02  2.838135757E+02  2.339754486E+02  1.552304067E-01 
        47  3.882754171E-02  1.231963568E-01  7.616928387E-02  9.661676840E+04  2.915848409E+02  3.381510712E+02  2.847528864E+02  2.317978257E+02  1.628438305E-01 
        48  3.896508106E-02  1.235573809E-01  7.913505459E-02  9.669099023E+04  2.870084839E+02  3.393174210E+02  2.867362137E+02  2.241736259E+02  1.671575531E-01 
        49  3.903512947E-02  1.239238609E-01  8.213137167E-02  9.663048291E+04  2.751983569E+02  3.417941539E+02  2.909660850E+02  2.039984994E+02  1.812475573E-01 
        50  3.900153017E-02  1.243001337E-01  8.510504302E-02  9.646592950E+04  2.578872592E+02  3.453840315E+02  2.971174083E+02  1.695549487E+02  1.811638759E-01 
        51  3.889299026E-02  1.246700891E-01  8.806950082E-02  9.631235687E+04  2.398086498E+02  3.493667219E+02  3.039976151E+02  1.213121586E+02  1.700867797E-01 
        52  3.870303970E-02  1.250405990E-01  9.105247242E-02  9.619438232E+04  2.321168022E+02  3.521462278E+02  3.088224349E+02  7.875813138E+01  4.803183416E-02 
        53  3.847530202E-02  1.253810613E-01  9.402032493E-02  9.679364127E+04  2.335488771E+02  3.529776568E+02  3.102773020E+02  4.600961243E+01 -4.017368402E-01 
        54  3.809583015E-02  1.257752167E-01  9.695318516E-02  9.679463379E+04  2.295734978E+02  3.530582008E+02  3.104131470E+02  4.072471571E+01 -7.628118116E-01 
        55  3.767199372E-02  1.261489404E-01  9.992435767E-02  9.791979688E+04  2.444458442E+02  3.524667702E+02  3.093728752E+02  4.811677098E+01 -1.656372733E+00 
        56  3.723780727E-02  1.265196365E-01  1.028569506E-01  1.000428758E+05  2.543062432E+02  3.520609180E+02  3.086610337E+02  6.446731144E+01 -1.194014036E+00 
        57  3.672955052E-02  1.269046997E-01  1.057947981E-01  1.013779275E+05  2.465096967E+02  3.505846643E+02  3.060780029E+02  1.089632971E+02 -1.070212533E-01 
        58  3.615520807E-02  1.273091289E-01  1.087154776E-01  1.028923872E+05  2.380912743E+02  3.479821634E+02  3.015537109E+02  1.510182490E+02  2.479095329E-01 
        59  3.556812424E-02  1.277144368E-01  1.116309472E-01  1.049886749E+05  2.442443092E+02  3.449540462E+02  2.963283885E+02  1.806653661E+02  2.931338272E-01 
        60  3.495651588E-02  1.281329458E-01  1.145394580E-01  1.068585754E+05  2.514899158E+02  3.434040337E+02  2.936693797E+02  1.908529916E+02  2.766362773E-01 
        61  3.433795015E-02  1.285471243E-01  1.174457346E-01  1.079403079E+05  2.560204966E+02  3.432078280E+02  2.933314381E+02  1.916065922E+02  2.506251340E-01 
        62  3.376061330E-02  1.289460490E-01  1.203607660E-01  1.082807437E+05  2.611024790E+02  3.435191979E+02  2.938635068E+02  1.927152101E+02  2.237508127E-01 
        63  3.331803132E-02  1.293309423E-01  1.232882868E-01  1.082086963E+05  2.664761242E+02  3.436273297E+02  2.940486256E+02  1.958690724E+02  2.030985716E-01 
        64  3.310586596E-02  1.296649637E-01  1.262581306E-01  1.080634264E+05  2.697958870E+02  3.434787860E+02  2.937943652E+02  1.984049760E+02  1.934761098E-01 
        65  3.306639982E-02  1.299493947E-01  1.292495641E-01  1.079197902E+05  2.728087174E+02  3.429505811E+02  2.928916643E+02  2.000315517E+02  1.826187483E-01 
        66  3.322486525E-02  1.302097713E-01  1.322380794E-01  1.077227489E+05  2.728318090E+02  3.428211447E+02  2.926704912E+02  2.019260852E+02  1.910573054E-01 
        67  3.356462385E-02  1.304573038E-01  1.352130229E-01  1.075209086E+05  2.737340716E+02  3.426534615E+02  2.923841115E+02  2.028195738E+02  1.909900231E-01 
        68  3.400410102E-02  1.306751199E-01  1.381765647E-01  1.072422491E+05  2.744818232E+02  3.426014066E+02  2.922953224E+02  2.031587129E+02  1.898924040E-01 
        69  3.451963359E-02  1.308741206E-01  1.411278790E-01  1.069358026E+05  2.755170372E+02  3.425555449E+02  2.922170730E+02  2.039523103E+02  1.887973153E-01 
        70  3.508991352E-02  1.310576265E-01  1.440660380E-01  1.066475413E+05  2.768683493E+02  3.424796004E+02  2.920873318E+02  2.057198122E+02  1.892374165E-01 
        71  3.570211579E-02  1.312503676E-01  1.470000000E-01  1.063052979E+05  2.785257874E+02  3.423617172E+02  2.918836594E+02  2.084015789E+02  1.907913834E-01 
        72 -2.843361623E-02  1.708417341E-01 -4.258217492E-02  8.214200903E+04  1.835826035E+02  3.300242958E+02  2.712283449E+02  3.440195818E+02  1.007899486E+00 
        73 -2.838826984E-02  1.709653765E-01 -3.916427879E-02  8.216919977E+04  1.833803034E+02  3.300991976E+02  2.713515110E+02  3.444423909E+02  1.009458365E+00 
        74 -2.835908450E-02  1.711140563E-01 -3.574649433E-02  8.234121088E+04  1.835955681E+02  3.301517906E+02  2.714382329E+02  3.427804708E+02  1.005742976E+00 
        75 -2.838361088E-02  1.712589164E-01 -3.232950605E-02  8.267999390E+04  1.843172359E+02  3.302250509E+02  2.715587683E+02  3.440359268E+02  1.005989756E+00 
        76 -2.841360827E-02  1.714319125E-01 -2.891476756E-02  8.325559985E+04  1.825775456E+02  3.306786351E+02  2.723051171E+02  3.410957403E+02  1.006554598E+00 
        77 -2.833774301E-02  1.716334782E-01 -2.549995819E-02  8.382204471E+04  1.809207017E+02  3.310585842E+02  2.729314463E+02  3.388658071E+02  1.008300035E+00 
        78 -2.791452343E-02  1.719215161E-01 -2.212016887E-02  8.417427539E+04  1.815205889E+02  3.310956841E+02  2.729924459E+02  3.409199390E+02  1.009968236E+00 
        79 -2.700703325E-02  1.722886754E-01 -1.884820631E-02  8.411205200E+04  1.810904551E+02  3.310366468E+02  2.728950052E+02  3.403236284E+02  1.010303337E+00 
        80 -2.544395246E-02  1.727209334E-01 -1.584518523E-02  8.327727795E+04  1.815524690E+02  3.306137121E+02  2.721984334E+02  3.429141641E+02  1.013316201E+00 
        81 -2.351536464E-02  1.732363399E-01 -1.306823492E-02  8.135571738E+04  1.844948512E+02  3.296118973E+02  2.705520962E+02  3.486515634E+02  1.013722377E+00 
        82 -2.134527601E-02  1.737374909E-01 -1.047435973E-02  7.871324915E+04  1.914567063E+02  3.279438895E+02  2.678226675E+02  3.558925197E+02  1.004058140E+00 
        83 -1.897326710E-02  1.742189522E-01 -8.035177519E-03  7.593465952E+04  1.977485271E+02  3.264770509E+02  2.654308909E+02  3.632157204E+02  9.964645603E-01 
        84 -1.652827274E-02  1.746780172E-01 -5.688541800E-03  7.387120569E+04  2.052591639E+02  3.249616685E+02  2.629721415E+02  3.695141978E+02  9.838223690E-01 
        85 -1.397929867E-02  1.751251779E-01 -3.446989688E-03  7.290172107E+04  2.077051163E+02  3.245879064E+02  2.623674207E+02  3.714910378E+02  9.793914016E-01 
        86 -1.139011487E-02  1.755573757E-01 -1.256774906E-03  7.362569531E+04  2.105962391E+02  3.248284922E+02  2.627588573E+02  3.713252697E+02  9.693350494E-01 
        87 -8.734274343E-03  1.759085237E-01  8.667805443E-04  7.813076324E+04  2.050481497E+02  3.276555965E+02  2.673589454E+02  3.586377697E+02  9.636382898E-01 
        88 -6.073383534E-03  1.762548475E-01  2.984781313E-03  8.803892181E+04  1.907039220E+02  3.332980196E+02  2.766457012E+02  3.325507011E+02  9.677025173E-01 
        89 -3.359730182E-03  1.765819110E-01  5.053045394E-03  9.805489923E+04  1.759094241E+02  3.383030288E+02  2.850112917E+02  3.055519497E+02  9.818651346E-01 
        90 -6.741955509E-04  1.768270807E-01  7.130208361E-03  9.652505254E+04  1.694880790E+02  3.374538252E+02  2.835806318E+02  3.091045499E+02  1.008059243E+00 
        91  2.027043660E-03  1.770783858E-01  9.208570588E-03  7.940061981E+04  1.927176763E+02  3.283222892E+02  2.684456917E+02  3.590311533E+02  1.006173013E+00 
        92  4.731686997E-03  1.772422585E-01  1.127155269E-02  7.427677441E+04  2.103418556E+02  3.252500629E+02  2.634402354E+02  3.732930838E+02  9.741441748E-01 
        93  7.454465044E-03  1.773874983E-01  1.334309669E-02  7.400004391E+04  2.107624574E+02  3.248173364E+02  2.627412620E+02  3.747641922E+02  9.756626226E-01 
        94  1.015989937E-02  1.775222933E-01  1.545596277E-02  7.087343155E+04  2.192873856E+02  3.228232857E+02  2.595318332E+02  3.822498348E+02  9.628784070E-01 
        95  1.284858280E-02  1.775661421E-01  1.756817794E-02  6.725733954E+04  2.279736606E+02  3.206968262E+02  2.561208665E+02  3.913195000E+02  9.529703506E-01 
        96  1.551966693E-02  1.776138061E-01  1.970369132E-02  6.425382001E+04  2.356029844E+02  3.188516848E+02  2.531872575E+02  3.997653995E+02  9.460905679E-01 
        97  1.817410325E-02  1.776258069E-01  2.186017323E-02  6.171177209E+04  2.457658758E+02  3.168716912E+02  2.500506072E+02  4.097344108E+02  9.346822128E-01 
        98  2.080993586E-02  1.775631240E-01  2.403936301E-02  5.986787634E+04  2.529505019E+02  3.157047539E+02  2.482074752E+02  4.140361900E+02  9.204025529E-01 
        99  2.341570779E-02  1.774969016E-01  2.625394818E-02  5.918071301E+04  2.576378350E+02  3.153939228E+02  2.477196178E+02  4.138703680E+02  9.046562966E-01 
       100  2.600295182E-02  1.773818036E-01  2.848806157E-02  6.084871875E+04  2.593687801E+02  3.165641680E+02  2.495778208E+02  4.098398943E+02  8.897530995E-01 
       101  2.856627515E-02  1.771883875E-01  3.074502562E-02  6.648641577E+04  2.544560366E+02  3.204217472E+02  2.557512913E+02  3.942974348E+02  8.734978139E-01 
       102  3.110662233E-02  1.769811535E-01  3.302644514E-02  7.491915723E+04  2.458989925E+02  3.259973412E+02  2.647272816E+02  3.700908861E+02  8.522236478E-01 
       103  3.362247542E-02  1.767159818E-01  3.532849163E-02  8.164666394E+04  2.428208718E+02  3.300098858E+02  2.712260776E+02  3.526484213E+02  8.277078718E-01 
       104  3.610895472E-02  1.763647845E-01  3.765120331E-02  8.296331409E+04  2.475548348E+02  3.305776567E+02  2.721455441E+02  3.494911232E+02  8.058841852E-01 
       105  3.856497337E-02  1.759966372E-01  4.000321012E-02  8.043943137E+04  2.560959991E+02  3.291691234E+02  2.698310148E+02  3.583897724E+02  7.930311072E-01 
       106  4.103059304E-02  1.755360248E-01  4.234569910E-02  7.808212807E+04  2.628152946E+02  3.281006086E+02  2.680774278E+02  3.631227095E+02  7.788345369E-01 
       107  4.340106546E-02  1.750377176E-01  4.474435622E-02  7.836691177E+04  2.684136686E+02  3.281191529E+02  2.681083809E+02  3.627885051E+02  7.593974420E-01 
       108  4.575540032E-02  1.745445103E-01  4.717695363E-02  8.192113318E+04  2.676256094E+02  3.301667047E+02  2.714733164E+02  3.538006935E+02  7.454237081E-01 
       109  4.807037784E-02  1.739953488E-01  4.963532790E-02  8.835421362E+04  2.623379192E+02  3.337409782E+02  2.773873720E+02  3.355018597E+02  7.307689488E-01 
       110  5.034733117E-02  1.734133857E-01  5.212084081E-02  9.521253711E+04  2.577794552E+02  3.372362747E+02  2.832221603E+02  3.178761997E+02  7.166988142E-01 
       111  5.258765486E-02  1.728405975E-01  5.464144749E-02  9.963864111E+04  2.566145496E+02  3.395430584E+02  2.871027279E+02  3.054933853E+02  7.009316646E-01 
       112  5.479076840E-02  1.722430532E-01  5.718902978E-02  1.023521379E+05  2.578165398E+02  3.409431410E+02  2.894738569E+02  2.975560942E+02  6.847021729E-01 
       113  5.694737683E-02  1.716020731E-01  5.976586917E-02  1.052589953E+05  2.577737257E+02  3.422976825E+02  2.917785804E+02  2.909337583E+02  6.752218017E-01 
       114  5.911848447E-02  1.709340834E-01  6.233872565E-02  1.086126896E+05  2.565861380E+02  3.436789940E+02  2.941375358E+02  2.840914825E+02  6.696316491E-01 
       115  6.119351897E-02  1.703313828E-01  6.496775561E-02  1.114909941E+05  2.558245435E+02  3.448328619E+02  2.961162987E+02  2.770881577E+02  6.632984243E-01 
       116  6.319798910E-02  1.696485115E-01  6.765543605E-02  1.137382854E+05  2.550043793E+02  3.458361988E+02  2.978418674E+02  2.698290434E+02  6.572374636E-01 
       117  6.520189851E-02  1.689621155E-01  7.034628384E-02  1.158464395E+05  2.525410318E+02  3.468946600E+02  2.996676006E+02  2.630110121E+02  6.585994810E-01 
       118  6.717992039E-02  1.682884043E-01  7.305807409E-02  1.175178799E+05  2.506469135E+02  3.476340103E+02  3.009455338E+02  2.589006920E+02  6.616214961E-01 
       119  6.910755662E-02  1.675987334E-01  7.579818779E-02  1.187380054E+05  2.495442941E+02  3.480204918E+02  3.016148012E+02  2.568666756E+02  6.641828297E-01 
       120  7.101404689E-02  1.668389198E-01  7.852135391E-02  1.196650739E+05  2.459799255E+02  3.485413253E+02  3.025185890E+02  2.551187468E+02  6.766153360E-01 
