nodenumber     x-coordinate     y-coordinate     z-coordinate         pressure velocity-magnitude      sound-speed      temperature rel-velocity-magnitude relative-velocity-angle 
         1 -2.216901913E-02  1.039879580E-01 -4.300600202E-02  8.755308170E+04  1.539419165E+02  3.330522346E+02  2.762278842E+02  2.357931212E+02  8.594838135E-01 
         2 -2.197401757E-02  1.042260031E-01 -4.002397295E-02  8.747368539E+04  1.544274615E+02  3.330090971E+02  2.761563352E+02  2.363442380E+02  8.589638153E-01 
         3 -2.150271627E-02  1.045375264E-01 -3.708169353E-02  8.736986749E+04  1.550573474E+02  3.329529047E+02  2.760631809E+02  2.370206913E+02  8.581892978E-01 
         4 -2.072290556E-02  1.049359494E-01 -3.421635317E-02  8.725317419E+04  1.557515056E+02  3.328914123E+02  2.759611816E+02  2.377607238E+02  8.573572896E-01 
         5 -1.964621854E-02  1.053757771E-01 -3.145501365E-02  8.712833179E+04  1.564460630E+02  3.328270035E+02  2.758544273E+02  2.385156627E+02  8.566255327E-01 
         6 -1.833909717E-02  1.058829391E-01 -2.880182754E-02  8.697639502E+04  1.572066579E+02  3.327482214E+02  2.757238622E+02  2.394262004E+02  8.561276905E-01 
         7 -1.686396899E-02  1.064019756E-01 -2.624136390E-02  8.679510205E+04  1.580460076E+02  3.326530600E+02  2.755661850E+02  2.404366622E+02  8.555917703E-01 
         8 -1.524276490E-02  1.069101094E-01 -2.376908005E-02  8.657988623E+04  1.590364153E+02  3.325378237E+02  2.753752923E+02  2.415788445E+02  8.547401279E-01 
         9 -1.353040875E-02  1.074492491E-01 -2.136449246E-02  8.634136096E+04  1.602425730E+02  3.324089327E+02  2.751618366E+02  2.428760102E+02  8.533039493E-01 
        10 -1.175719847E-02  1.079385502E-01 -1.899452623E-02  8.614421936E+04  1.615278188E+02  3.323020127E+02  2.749848549E+02  2.439945781E+02  8.508437928E-01 
        11 -9.920451205E-03  1.084473482E-01 -1.667649769E-02  8.607726929E+04  1.626660472E+02  3.322646365E+02  2.749230478E+02  2.447405533E+02  8.478709990E-01 
        12 -8.053093039E-03  1.089314126E-01 -1.437870322E-02  8.626209564E+04  1.631545895E+02  3.323643001E+02  2.750879936E+02  2.444833832E+02  8.448789869E-01 
        13 -6.139911673E-03  1.093816015E-01 -1.211111235E-02  8.676668262E+04  1.625011392E+02  3.326367941E+02  2.755392127E+02  2.430073662E+02  8.438445069E-01 
        14 -4.213714023E-03  1.098625599E-01 -9.853315987E-03  8.754821631E+04  1.603949261E+02  3.330540981E+02  2.762310658E+02  2.404459476E+02  8.470955193E-01 
        15 -2.267252226E-03  1.102821410E-01 -7.616721013E-03  8.844015820E+04  1.565131216E+02  3.335328712E+02  2.770258741E+02  2.374139900E+02  8.587071151E-01 
        16 -3.058463972E-04  1.106716081E-01 -5.380345181E-03  8.945461206E+04  1.498639989E+02  3.340292044E+02  2.778511944E+02  2.342085876E+02  8.853305019E-01 
        17  1.649896870E-03  1.110991589E-01 -3.144821902E-03  8.720992505E+04  1.466675541E+02  3.328584614E+02  2.759081826E+02  2.428558977E+02  9.332655463E-01 
        18  3.605378217E-03  1.114680886E-01 -8.997268064E-04  7.579057373E+04  1.745836480E+02  3.262876024E+02  2.651218443E+02  2.856115103E+02  9.435379896E-01 
        19  5.548952344E-03  1.118349081E-01  1.356589372E-03  7.025549609E+04  2.066948365E+02  3.230354006E+02  2.598637424E+02  3.054055262E+02  8.502480937E-01 
        20  7.472030685E-03  1.121892539E-01  3.633809071E-03  7.266401225E+04  2.115052475E+02  3.245137677E+02  2.622502051E+02  2.971120170E+02  7.896227194E-01 
        21  9.366594022E-03  1.125505666E-01  5.932977735E-03  7.620493060E+04  2.084468211E+02  3.265513361E+02  2.655529308E+02  2.847203598E+02  7.568855966E-01 
        22  1.122147558E-02  1.129077905E-01  8.263617067E-03  7.865613438E+04  2.085449792E+02  3.279455666E+02  2.678242529E+02  2.767994483E+02  7.268472392E-01 
        23  1.303284284E-02  1.132507638E-01  1.062953057E-02  8.030768210E+04  2.110047536E+02  3.289453724E+02  2.694590053E+02  2.715903040E+02  6.954936805E-01 
        24  1.479928419E-02  1.136234762E-01  1.303021626E-02  8.147130034E+04  2.153703796E+02  3.296719843E+02  2.706504007E+02  2.678721201E+02  6.598985470E-01 
        25  1.649617427E-02  1.139938279E-01  1.547769530E-02  8.245269049E+04  2.204049942E+02  3.302503116E+02  2.716006160E+02  2.648135631E+02  6.233421317E-01 
        26  1.811807173E-02  1.143837002E-01  1.797032872E-02  8.317905994E+04  2.259598763E+02  3.306626849E+02  2.722788882E+02  2.629438782E+02  5.885657221E-01 
        27  1.968166241E-02  1.148013513E-01  2.049621310E-02  8.338684515E+04  2.328738210E+02  3.308090301E+02  2.725197284E+02  2.632400405E+02  5.546377827E-01 
        28  2.119101764E-02  1.152299366E-01  2.305322148E-02  8.296980122E+04  2.415130303E+02  3.306483891E+02  2.722550845E+02  2.657581878E+02  5.196653345E-01 
        29  2.266338778E-02  1.156643914E-01  2.563116057E-02  8.239893854E+04  2.503580905E+02  3.303540676E+02  2.717706589E+02  2.688253413E+02  4.856945474E-01 
        30  2.408077791E-02  1.161159634E-01  2.823658064E-02  8.185643604E+04  2.585757506E+02  3.301036618E+02  2.713590493E+02  2.715957332E+02  4.541598181E-01 
        31  2.544088325E-02  1.165921105E-01  3.086849856E-02  8.130286414E+04  2.667369027E+02  3.298244672E+02  2.709005864E+02  2.746174922E+02  4.241478494E-01 
        32  2.674433127E-02  1.170738851E-01  3.352942364E-02  8.073967554E+04  2.747288189E+02  3.295639758E+02  2.704732878E+02  2.776720071E+02  3.953636796E-01 
        33  2.797950643E-02  1.175445507E-01  3.622298897E-02  8.021729434E+04  2.824996991E+02  3.293404704E+02  2.701070565E+02  2.804034758E+02  3.666094400E-01 
        34  2.916313541E-02  1.180056499E-01  3.893937175E-02  7.992367427E+04  2.897177116E+02  3.291627035E+02  2.698158984E+02  2.822859825E+02  3.375189494E-01 
        35  3.031249539E-02  1.184785399E-01  4.167042727E-02  8.005967059E+04  2.954831299E+02  3.291145082E+02  2.697368942E+02  2.827136827E+02  3.105074255E-01 
        36  3.139929926E-02  1.189405785E-01  4.442941843E-02  8.035448355E+04  3.007861612E+02  3.291894677E+02  2.698594610E+02  2.826006029E+02  2.837418988E-01 
        37  3.242013936E-02  1.193808800E-01  4.721660669E-02  8.093220082E+04  3.057340622E+02  3.293093501E+02  2.700554330E+02  2.814341728E+02  2.544266508E-01 
        38  3.340677803E-02  1.198011670E-01  5.002067675E-02  8.216372842E+04  3.084914924E+02  3.299270027E+02  2.710693028E+02  2.780199139E+02  2.276687701E-01 
        39  3.430413654E-02  1.201853153E-01  5.285529857E-02  8.374435962E+04  3.101982737E+02  3.308767538E+02  2.726326370E+02  2.734731693E+02  2.019232139E-01 
        40  3.515433510E-02  1.205874318E-01  5.570324370E-02  8.565573730E+04  3.105734501E+02  3.319671001E+02  2.744329300E+02  2.677342720E+02  1.786513552E-01 
        41  3.592907297E-02  1.209644065E-01  5.857535950E-02  8.780854761E+04  3.095429063E+02  3.331296120E+02  2.763586960E+02  2.610392289E+02  1.593679329E-01 
        42  3.664355424E-02  1.213334730E-01  6.146049591E-02  9.006749377E+04  3.072582483E+02  3.342939186E+02  2.782935214E+02  2.539512458E+02  1.457466385E-01 
        43  3.727845098E-02  1.217084379E-01  6.437276718E-02  9.220333374E+04  3.041817503E+02  3.354222336E+02  2.801748142E+02  2.471857328E+02  1.383583262E-01 
        44  3.781448665E-02  1.220744111E-01  6.730672953E-02  9.396115625E+04  3.008625574E+02  3.363924809E+02  2.817976589E+02  2.414383540E+02  1.370328655E-01 
        45  3.826762164E-02  1.224563704E-01  7.025293559E-02  9.517761072E+04  2.980366812E+02  3.371153128E+02  2.830094919E+02  2.372283524E+02  1.394543384E-01 
        46  3.856443464E-02  1.228195695E-01  7.317567491E-02  9.588017969E+04  2.964008942E+02  3.375423431E+02  2.837265930E+02  2.355012360E+02  1.449557655E-01 
        47  3.882754171E-02  1.231963568E-01  7.616928387E-02  9.620952744E+04  2.951494784E+02  3.380615271E+02  2.846018951E+02  2.343423216E+02  1.510818649E-01 
        48  3.896508106E-02  1.235573809E-01  7.913505459E-02  9.626592969E+04  2.914089241E+02  3.390352173E+02  2.862563057E+02  2.283232765E+02  1.545922086E-01 
        49  3.903512947E-02  1.239238609E-01  8.213137167E-02  9.617167578E+04  2.832851136E+02  3.407783124E+02  2.892283025E+02  2.140163343E+02  1.576526936E-01 
        50  3.900153017E-02  1.243001337E-01  8.510504302E-02  9.604405148E+04  2.697595842E+02  3.436066095E+02  2.940609353E+02  1.892688086E+02  1.577429031E-01 
        51  3.889299026E-02  1.246700891E-01  8.806950082E-02  9.632673431E+04  2.533960481E+02  3.472350459E+02  3.003104506E+02  1.507441912E+02  1.445532617E-01 
        52  3.870303970E-02  1.250405990E-01  9.105247242E-02  9.649249731E+04  2.443873372E+02  3.500973344E+02  3.052554965E+02  1.155910357E+02  7.075879897E-02 
        53  3.847530202E-02  1.253810613E-01  9.402032493E-02  9.724551791E+04  2.420389078E+02  3.520486424E+02  3.086600240E+02  8.333694725E+01 -1.993791708E-01 
        54  3.809583015E-02  1.257752167E-01  9.695318516E-02  9.958338965E+04  2.399376335E+02  3.533391151E+02  3.109164696E+02  5.661879301E+01 -5.762174912E-01 
        55  3.767199372E-02  1.261489404E-01  9.992435767E-02  1.022182339E+05  2.392188091E+02  3.540758619E+02  3.122050757E+02  5.074479318E+01 -4.791426826E-01 
        56  3.723780727E-02  1.265196365E-01  1.028569506E-01  1.043596569E+05  2.371568757E+02  3.537822113E+02  3.116863593E+02  6.179260415E+01 -1.813241089E-01 
        57  3.672955052E-02  1.269046997E-01  1.057947981E-01  1.058263973E+05  2.370697820E+02  3.522517014E+02  3.090012612E+02  8.984393489E+01  2.057617705E-02 
        58  3.615520807E-02  1.273091289E-01  1.087154776E-01  1.069291472E+05  2.425099831E+02  3.497152748E+02  3.045735559E+02  1.272878652E+02  1.273196735E-01 
        59  3.556812424E-02  1.277144368E-01  1.116309472E-01  1.076305538E+05  2.528433311E+02  3.468165104E+02  2.995433011E+02  1.625193008E+02  1.730267594E-01 
        60  3.495651588E-02  1.281329458E-01  1.145394580E-01  1.079547439E+05  2.626359100E+02  3.445435395E+02  2.956233644E+02  1.859122396E+02  1.882232954E-01 
        61  3.433795015E-02  1.285471243E-01  1.174457346E-01  1.079898828E+05  2.682639685E+02  3.433738518E+02  2.936152730E+02  1.967732012E+02  1.916357896E-01 
        62  3.376061330E-02  1.289460490E-01  1.203607660E-01  1.078978372E+05  2.706550922E+02  3.429971979E+02  2.929706922E+02  2.002192655E+02  1.905224423E-01 
        63  3.331803132E-02  1.293309423E-01  1.232882868E-01  1.078110629E+05  2.718766111E+02  3.429472106E+02  2.928852282E+02  2.011188874E+02  1.880552144E-01 
        64  3.310586596E-02  1.296649637E-01  1.262581306E-01  1.077168724E+05  2.728237817E+02  3.429642990E+02  2.929143777E+02  2.014557499E+02  1.853458798E-01 
        65  3.306639982E-02  1.299493947E-01  1.292495641E-01  1.076150803E+05  2.737042874E+02  3.429635090E+02  2.929130499E+02  2.018737055E+02  1.833317269E-01 
        66  3.322486525E-02  1.302097713E-01  1.322380794E-01  1.074753466E+05  2.746552629E+02  3.429204260E+02  2.928394410E+02  2.026499288E+02  1.823495468E-01 
        67  3.356462385E-02  1.304573038E-01  1.352130229E-01  1.073122941E+05  2.756601815E+02  3.428548042E+02  2.927273749E+02  2.037546968E+02  1.825527907E-01 
        68  3.400410102E-02  1.306751199E-01  1.381765647E-01  1.071180181E+05  2.767076468E+02  3.427702522E+02  2.925830097E+02  2.050879936E+02  1.832148477E-01 
        69  3.451963359E-02  1.308741206E-01  1.411278790E-01  1.068962297E+05  2.777852504E+02  3.426743035E+02  2.924192746E+02  2.065576289E+02  1.842414073E-01 
        70  3.508991352E-02  1.310576265E-01  1.440660380E-01  1.066354390E+05  2.788756549E+02  3.425717826E+02  2.922443101E+02  2.081738358E+02  1.857372255E-01 
        71  3.570211579E-02  1.312503676E-01  1.470000000E-01  1.063213652E+05  2.802617874E+02  3.424216461E+02  2.919894066E+02  2.101513958E+02  1.864918265E-01 
        72 -2.843361623E-02  1.708417341E-01 -4.258217492E-02  8.204105811E+04  1.837933602E+02  3.299751053E+02  2.711472645E+02  3.443293114E+02  1.007607855E+00 
        73 -2.838826984E-02  1.709653765E-01 -3.916427879E-02  8.200544568E+04  1.842456524E+02  3.299609497E+02  2.711240315E+02  3.445894809E+02  1.006533435E+00 
        74 -2.835908450E-02  1.711140563E-01 -3.574649433E-02  8.232836322E+04  1.839599955E+02  3.301522222E+02  2.714384949E+02  3.438767765E+02  1.006224430E+00 
        75 -2.838361088E-02  1.712589164E-01 -3.232950605E-02  8.302897949E+04  1.828979502E+02  3.305524788E+02  2.720971241E+02  3.421763601E+02  1.006829176E+00 
        76 -2.841360827E-02  1.714319125E-01 -2.891476756E-02  8.386941113E+04  1.813456492E+02  3.310259957E+02  2.728771157E+02  3.400832982E+02  1.008475244E+00 
        77 -2.833774301E-02  1.716334782E-01 -2.549995819E-02  8.446735052E+04  1.800322165E+02  3.313543043E+02  2.734186312E+02  3.386645662E+02  1.010545799E+00 
        78 -2.791452343E-02  1.719215161E-01 -2.212016887E-02  8.463339355E+04  1.794155493E+02  3.314345150E+02  2.735510530E+02  3.385337296E+02  1.012484167E+00 
        79 -2.700703325E-02  1.722886754E-01 -1.884820631E-02  8.429436890E+04  1.795480790E+02  3.312477598E+02  2.732429152E+02  3.397424049E+02  1.014161564E+00 
        80 -2.544395246E-02  1.727209334E-01 -1.584518523E-02  8.312603516E+04  1.812516571E+02  3.305928159E+02  2.721636703E+02  3.431599486E+02  1.014348480E+00 
        81 -2.351536464E-02  1.732363399E-01 -1.306823492E-02  8.105904185E+04  1.852999722E+02  3.294089559E+02  2.702182337E+02  3.491881989E+02  1.011435216E+00 
        82 -2.134527601E-02  1.737374909E-01 -1.047435973E-02  7.824326424E+04  1.919814670E+02  3.277610363E+02  2.675217355E+02  3.573582695E+02  1.004088643E+00 
        83 -1.897326710E-02  1.742189522E-01 -8.035177519E-03  7.526829306E+04  2.001117639E+02  3.259715418E+02  2.646084621E+02  3.660341941E+02  9.935531933E-01 
        84 -1.652827274E-02  1.746780172E-01 -5.688541800E-03  7.309046118E+04  2.068539772E+02  3.246205535E+02  2.624192748E+02  3.724579301E+02  9.837429775E-01 
        85 -1.397929867E-02  1.751251779E-01 -3.446989688E-03  7.252316113E+04  2.097666874E+02  3.242465487E+02  2.618146958E+02  3.742651215E+02  9.775551837E-01 
        86 -1.139011487E-02  1.755573757E-01 -1.256774906E-03  7.418995044E+04  2.084612794E+02  3.252873001E+02  2.635001230E+02  3.699366221E+02  9.730110224E-01 
        87 -8.734274343E-03  1.759085237E-01  8.667805443E-04  7.959451605E+04  2.021927396E+02  3.285489776E+02  2.688160622E+02  3.553420675E+02  9.659909401E-01 
        88 -6.073383534E-03  1.762548475E-01  2.984781313E-03  8.905339233E+04  1.909537913E+02  3.337799888E+02  2.774422431E+02  3.297737396E+02  9.611967942E-01 
        89 -3.359730182E-03  1.765819110E-01  5.053045394E-03  9.843493579E+04  1.757349848E+02  3.384495692E+02  2.852556776E+02  3.039899626E+02  9.797992692E-01 
        90 -6.741955509E-04  1.768270807E-01  7.130208361E-03  9.867610586E+04  1.646551336E+02  3.384818031E+02  2.853098148E+02  3.041142133E+02  1.019010605E+00 
        91  2.027043660E-03  1.770783858E-01  9.208570588E-03  7.910372498E+04  1.925787193E+02  3.281539678E+02  2.681674005E+02  3.578603993E+02  1.003308731E+00 
        92  4.731686997E-03  1.772422585E-01  1.127155269E-02  7.193269669E+04  2.150872012E+02  3.241619855E+02  2.616798552E+02  3.777172946E+02  9.663129838E-01 
        93  7.454465044E-03  1.773874983E-01  1.334309669E-02  7.280509552E+04  2.097759833E+02  3.245443589E+02  2.622975501E+02  3.749772440E+02  9.783612713E-01 
        94  1.015989937E-02  1.775222933E-01  1.545596277E-02  7.039901862E+04  2.168438555E+02  3.228350185E+02  2.595456739E+02  3.820846709E+02  9.694558179E-01 
        95  1.284858280E-02  1.775661421E-01  1.756817794E-02  6.691201779E+04  2.278701446E+02  3.205781946E+02  2.559309341E+02  3.922072845E+02  9.542794013E-01 
        96  1.551966693E-02  1.776138061E-01  1.970369132E-02  6.391491138E+04  2.376760521E+02  3.185095432E+02  2.526381550E+02  4.013192601E+02  9.417158002E-01 
        97  1.817410325E-02  1.776258069E-01  2.186017323E-02  6.154100659E+04  2.457838721E+02  3.168325758E+02  2.499833426E+02  4.085054493E+02  9.309812030E-01 
        98  2.080993586E-02  1.775631240E-01  2.403936301E-02  5.994940063E+04  2.527663159E+02  3.156650243E+02  2.481419992E+02  4.133893423E+02  9.189785421E-01 
        99  2.341570779E-02  1.774969016E-01  2.625394818E-02  5.975749011E+04  2.573486557E+02  3.155224085E+02  2.479184546E+02  4.143882332E+02  9.059468247E-01 
       100  2.600295182E-02  1.773818036E-01  2.848806157E-02  6.206540063E+04  2.576775837E+02  3.171920033E+02  2.505687838E+02  4.084989195E+02  8.914800473E-01 
       101  2.856627515E-02  1.771883875E-01  3.074502562E-02  6.802441455E+04  2.515021534E+02  3.213191175E+02  2.571726055E+02  3.912389708E+02  8.750639372E-01 
       102  3.110662233E-02  1.769811535E-01  3.302644514E-02  7.577671387E+04  2.437314625E+02  3.262888947E+02  2.651764832E+02  3.685388641E+02  8.543633297E-01 
       103  3.362247542E-02  1.767159818E-01  3.532849163E-02  8.086481897E+04  2.432099147E+02  3.292430019E+02  2.699571147E+02  3.547649679E+02  8.288481068E-01 
       104  3.610895472E-02  1.763647845E-01  3.765120331E-02  8.107216577E+04  2.504273279E+02  3.293709359E+02  2.701581230E+02  3.550989261E+02  8.052214216E-01 
       105  3.856497337E-02  1.759966372E-01  4.000321012E-02  7.884615866E+04  2.590141821E+02  3.282465214E+02  2.683160956E+02  3.616368841E+02  7.886008075E-01 
       106  4.103059304E-02  1.755360248E-01  4.234569910E-02  7.766809329E+04  2.646634626E+02  3.277208710E+02  2.674555826E+02  3.650128850E+02  7.759783050E-01 
       107  4.340106546E-02  1.750377176E-01  4.474435622E-02  7.944082634E+04  2.662951566E+02  3.288707674E+02  2.693404264E+02  3.606994652E+02  7.623269602E-01 
       108  4.575540032E-02  1.745445103E-01  4.717695363E-02  8.449507800E+04  2.632433906E+02  3.316843381E+02  2.739750528E+02  3.474194989E+02  7.482480025E-01 
       109  4.807037784E-02  1.739953488E-01  4.963532790E-02  9.073749536E+04  2.590674448E+02  3.348782110E+02  2.792737627E+02  3.304159985E+02  7.326158118E-01 
       110  5.034733117E-02  1.734133857E-01  5.212084081E-02  9.527073242E+04  2.580994930E+02  3.371681652E+02  2.831005745E+02  3.182882195E+02  7.155570984E-01 
       111  5.258765486E-02  1.728405975E-01  5.464144749E-02  9.822719189E+04  2.588240318E+02  3.387529774E+02  2.857672424E+02  3.103903389E+02  7.003920637E-01 
       112  5.479076840E-02  1.722430532E-01  5.718902978E-02  1.011235310E+05  2.587027521E+02  3.402437134E+02  2.882876320E+02  3.022677946E+02  6.882941723E-01 
       113  5.694737683E-02  1.716020731E-01  5.976586917E-02  1.042543455E+05  2.579736087E+02  3.417260127E+02  2.908044069E+02  2.934980271E+02  6.778510776E-01 
       114  5.911848447E-02  1.709340834E-01  6.233872565E-02  1.072750509E+05  2.573797268E+02  3.430935405E+02  2.931359117E+02  2.856326997E+02  6.687240446E-01 
       115  6.119351897E-02  1.703313828E-01  6.496775561E-02  1.099445574E+05  2.567070785E+02  3.443003378E+02  2.952018390E+02  2.785397630E+02  6.617621146E-01 
       116  6.319798910E-02  1.696485115E-01  6.765543605E-02  1.123674133E+05  2.558920588E+02  3.453811932E+02  2.970578551E+02  2.716483502E+02  6.558150845E-01 
       117  6.520189851E-02  1.689621155E-01  7.034628384E-02  1.147517515E+05  2.548721857E+02  3.463964834E+02  2.988068142E+02  2.654479637E+02  6.521404963E-01 
       118  6.717992039E-02  1.682884043E-01  7.305807409E-02  1.173798628E+05  2.531329718E+02  3.475166626E+02  3.007422686E+02  2.585020790E+02  6.509455908E-01 
       119  6.910755662E-02  1.675987334E-01  7.579818779E-02  1.190385594E+05  2.512586589E+02  3.481776090E+02  3.018872447E+02  2.539754140E+02  6.538566481E-01 
       120  7.101404689E-02  1.668389198E-01  7.852135391E-02  1.200086808E+05  2.477375658E+02  3.485998597E+02  3.026200106E+02  2.507366308E+02  6.648636144E-01 
