nodenumber     x-coordinate     y-coordinate     z-coordinate         pressure velocity-magnitude      sound-speed      temperature rel-velocity-magnitude relative-velocity-angle 
         1 -2.216901913E-02  1.039879580E-01 -4.300600202E-02  8.755165015E+04  1.539498765E+02  3.330517650E+02  2.762271606E+02  2.357944093E+02  8.594444775E-01 
         2 -2.197401757E-02  1.042260031E-01 -4.002397295E-02  8.747228305E+04  1.544312708E+02  3.330086963E+02  2.761556811E+02  2.363412408E+02  8.589301065E-01 
         3 -2.150271627E-02  1.045375264E-01 -3.708169353E-02  8.736910406E+04  1.550543972E+02  3.329530115E+02  2.760633390E+02  2.370126575E+02  8.581752195E-01 
         4 -2.072290556E-02  1.049359494E-01 -3.421635317E-02  8.725440417E+04  1.557366021E+02  3.328924093E+02  2.759628963E+02  2.377448282E+02  8.573818104E-01 
         5 -1.964621854E-02  1.053757771E-01 -3.145501365E-02  8.713049829E+04  1.564304237E+02  3.328288107E+02  2.758574142E+02  2.385005183E+02  8.566572573E-01 
         6 -1.833909717E-02  1.058829391E-01 -2.880182754E-02  8.698134058E+04  1.571899877E+02  3.327521439E+02  2.757303510E+02  2.394126067E+02  8.561714813E-01 
         7 -1.686396899E-02  1.064019756E-01 -2.624136390E-02  8.680071118E+04  1.580331421E+02  3.326573029E+02  2.755732107E+02  2.404326463E+02  8.556499053E-01 
         8 -1.524276490E-02  1.069101094E-01 -2.376908005E-02  8.658218884E+04  1.590357158E+02  3.325401993E+02  2.753792129E+02  2.415907016E+02  8.547896631E-01 
         9 -1.353040875E-02  1.074492491E-01 -2.136449246E-02  8.633740063E+04  1.602633934E+02  3.324070077E+02  2.751586604E+02  2.429077132E+02  8.533085585E-01 
        10 -1.175719847E-02  1.079385502E-01 -1.899452623E-02  8.612988770E+04  1.615792313E+02  3.322927520E+02  2.749695714E+02  2.440417614E+02  8.507367484E-01 
        11 -9.920451205E-03  1.084473482E-01 -1.667649769E-02  8.605257462E+04  1.627408727E+02  3.322496448E+02  2.748981980E+02  2.447724999E+02  8.475825775E-01 
        12 -8.053093039E-03  1.089314126E-01 -1.437870322E-02  8.623470599E+04  1.632321407E+02  3.323471746E+02  2.750596566E+02  2.444865258E+02  8.444733652E-01 
        13 -6.139911673E-03  1.093816015E-01 -1.211111235E-02  8.675312646E+04  1.625637069E+02  3.326279135E+02  2.755245109E+02  2.429668784E+02  8.433636054E-01 
        14 -4.213714023E-03  1.098625599E-01 -9.853315987E-03  8.759114111E+04  1.603525429E+02  3.330809326E+02  2.762756157E+02  2.402746048E+02  8.467383943E-01 
        15 -2.267252226E-03  1.102821410E-01 -7.616721013E-03  8.860726172E+04  1.561843185E+02  3.336280632E+02  2.771840801E+02  2.368954458E+02  8.587798476E-01 
        16 -3.058463972E-04  1.106716081E-01 -5.380345181E-03  8.914660718E+04  1.500038242E+02  3.339321861E+02  2.776897497E+02  2.350856185E+02  8.873799685E-01 
        17  1.649896870E-03  1.110991589E-01 -3.144821902E-03  8.753832739E+04  1.454791868E+02  3.330396814E+02  2.762088842E+02  2.421006417E+02  9.367439123E-01 
        18  3.605378217E-03  1.114680886E-01 -8.997268064E-04  7.574519971E+04  1.742922788E+02  3.262147093E+02  2.650031171E+02  2.852074795E+02  9.432124794E-01 
        19  5.548952344E-03  1.118349081E-01  1.356589372E-03  7.030823370E+04  2.064918457E+02  3.227632320E+02  2.594264796E+02  3.051812258E+02  8.505149158E-01 
        20  7.472030685E-03  1.121892539E-01  3.633809071E-03  7.318343295E+04  2.088758025E+02  3.246196195E+02  2.624204754E+02  2.951493299E+02  7.956644688E-01 
        21  9.366594022E-03  1.125505666E-01  5.932977735E-03  7.624381964E+04  2.080609220E+02  3.265463824E+02  2.655448856E+02  2.847013571E+02  7.588583361E-01 
        22  1.122147558E-02  1.129077905E-01  8.263617067E-03  7.864336268E+04  2.084300049E+02  3.280068209E+02  2.679243032E+02  2.767353567E+02  7.271953202E-01 
        23  1.303284284E-02  1.132507638E-01  1.062953057E-02  8.037345409E+04  2.108842233E+02  3.290424977E+02  2.696180944E+02  2.712042904E+02  6.946483975E-01 
        24  1.479928419E-02  1.136234762E-01  1.303021626E-02  8.164363818E+04  2.150619061E+02  3.297846355E+02  2.708353564E+02  2.673587317E+02  6.596273573E-01 
        25  1.649617427E-02  1.139938279E-01  1.547769530E-02  8.260670160E+04  2.201926937E+02  3.303458126E+02  2.717575524E+02  2.646405320E+02  6.238742634E-01 
        26  1.811807173E-02  1.143837002E-01  1.797032872E-02  8.319515564E+04  2.262177205E+02  3.307157393E+02  2.723661351E+02  2.633812847E+02  5.888578612E-01 
        27  1.968166241E-02  1.148013513E-01  2.049621310E-02  8.328977753E+04  2.334454215E+02  3.308383889E+02  2.725680742E+02  2.639942012E+02  5.543835042E-01 
        28  2.119101764E-02  1.152299366E-01  2.305322148E-02  8.291296864E+04  2.418462153E+02  3.307248571E+02  2.723813495E+02  2.662940018E+02  5.198532963E-01 
        29  2.266338778E-02  1.156643914E-01  2.563116057E-02  8.240043219E+04  2.503231229E+02  3.305241673E+02  2.720513572E+02  2.689962629E+02  4.865051636E-01 
        30  2.408077791E-02  1.161159634E-01  2.823658064E-02  8.184840601E+04  2.585940046E+02  3.302937195E+02  2.716727431E+02  2.718495846E+02  4.550436046E-01 
        31  2.544088325E-02  1.165921105E-01  3.086849856E-02  8.124820508E+04  2.667669690E+02  3.300217791E+02  2.712261934E+02  2.749067717E+02  4.251317102E-01 
        32  2.674433127E-02  1.170738851E-01  3.352942364E-02  8.066290002E+04  2.747893660E+02  3.297218328E+02  2.707338691E+02  2.779079666E+02  3.959866213E-01 
        33  2.797950643E-02  1.175445507E-01  3.622298897E-02  8.018462082E+04  2.825241271E+02  3.294580618E+02  2.703011894E+02  2.804996517E+02  3.668724888E-01 
        34  2.916313541E-02  1.180056499E-01  3.893937175E-02  7.993928577E+04  2.895758979E+02  3.292787558E+02  2.700072159E+02  2.822185522E+02  3.380373647E-01 
        35  3.031249539E-02  1.184785399E-01  4.167042727E-02  8.000519839E+04  2.955766405E+02  3.291611984E+02  2.698141360E+02  2.828251321E+02  3.104839019E-01 
        36  3.139929926E-02  1.189405785E-01  4.442941843E-02  8.026518146E+04  3.011698818E+02  3.291592337E+02  2.698102786E+02  2.828232203E+02  2.825579855E-01 
        37  3.242013936E-02  1.193808800E-01  4.721660669E-02  8.092110135E+04  3.057396144E+02  3.293230519E+02  2.700781419E+02  2.813888558E+02  2.541861915E-01 
        38  3.340677803E-02  1.198011670E-01  5.002067675E-02  8.213227582E+04  3.085834835E+02  3.299138943E+02  2.710477120E+02  2.780452981E+02  2.272343780E-01 
        39  3.430413654E-02  1.201853153E-01  5.285529857E-02  8.369961377E+04  3.103488026E+02  3.308373766E+02  2.725678406E+02  2.735115471E+02  2.012289613E-01 
        40  3.515433510E-02  1.205874318E-01  5.570324370E-02  8.563595947E+04  3.106443920E+02  3.319241619E+02  2.743620720E+02  2.676760063E+02  1.779927872E-01 
        41  3.592907297E-02  1.209644065E-01  5.857535950E-02  8.782979688E+04  3.095189228E+02  3.330922279E+02  2.762967715E+02  2.608538060E+02  1.587047274E-01 
        42  3.664355424E-02  1.213334730E-01  6.146049591E-02  9.011696252E+04  3.070882316E+02  3.342991438E+02  2.783025289E+02  2.535941124E+02  1.452273130E-01 
        43  3.727845098E-02  1.217084379E-01  6.437276718E-02  9.225940381E+04  3.038779364E+02  3.354856062E+02  2.802809095E+02  2.467779741E+02  1.384232235E-01 
        44  3.781448665E-02  1.220744111E-01  6.730672953E-02  9.402407764E+04  3.006549091E+02  3.364646626E+02  2.819184227E+02  2.413454700E+02  1.378419357E-01 
        45  3.826762164E-02  1.224563704E-01  7.025293559E-02  9.528090973E+04  2.981740606E+02  3.371299629E+02  2.830340767E+02  2.378779097E+02  1.413460668E-01 
        46  3.856443464E-02  1.228195695E-01  7.317567491E-02  9.601839453E+04  2.968778763E+02  3.374733276E+02  2.836104813E+02  2.365169449E+02  1.463830173E-01 
        47  3.882754171E-02  1.231963568E-01  7.616928387E-02  9.637340494E+04  2.946017710E+02  3.381228583E+02  2.847059259E+02  2.332376038E+02  1.501060756E-01 
        48  3.896508106E-02  1.235573809E-01  7.913505459E-02  9.643527148E+04  2.897759781E+02  3.392730789E+02  2.866582069E+02  2.252205162E+02  1.518927626E-01 
        49  3.903512947E-02  1.239238609E-01  8.213137167E-02  9.633859741E+04  2.818517725E+02  3.410056126E+02  2.896117063E+02  2.109728829E+02  1.528286424E-01 
        50  3.900153017E-02  1.243001337E-01  8.510504302E-02  9.622444650E+04  2.697908866E+02  3.436787366E+02  2.941783642E+02  1.887896154E+02  1.509860538E-01 
        51  3.889299026E-02  1.246700891E-01  8.806950082E-02  9.619204327E+04  2.552214859E+02  3.470419297E+02  2.999735425E+02  1.555430908E+02  1.430913141E-01 
        52  3.870303970E-02  1.250405990E-01  9.105247242E-02  9.650519312E+04  2.450846128E+02  3.500638046E+02  3.052014637E+02  1.215513767E+02  9.453826697E-02 
        53  3.847530202E-02  1.253810613E-01  9.402032493E-02  9.758020612E+04  2.418129002E+02  3.521339377E+02  3.088097475E+02  8.718056981E+01 -1.780647517E-01 
        54  3.809583015E-02  1.257752167E-01  9.695318516E-02  1.000548125E+05  2.399773827E+02  3.535440445E+02  3.112773552E+02  6.158986759E+01 -4.848788977E-01 
        55  3.767199372E-02  1.261489404E-01  9.992435767E-02  1.023754050E+05  2.382115483E+02  3.542616949E+02  3.125322232E+02  5.384684098E+01 -3.591001006E-01 
        56  3.723780727E-02  1.265196365E-01  1.028569506E-01  1.044161566E+05  2.358764168E+02  3.539124552E+02  3.119154407E+02  6.462205225E+01 -1.154339213E-01 
        57  3.672955052E-02  1.269046997E-01  1.057947981E-01  1.057960338E+05  2.360570588E+02  3.523029370E+02  3.090901532E+02  9.116444516E+01  4.257102392E-02 
        58  3.615520807E-02  1.273091289E-01  1.087154776E-01  1.067473696E+05  2.413756809E+02  3.497425022E+02  3.046199017E+02  1.251806731E+02  1.290379092E-01 
        59  3.556812424E-02  1.277144368E-01  1.116309472E-01  1.073897368E+05  2.513738134E+02  3.468629880E+02  2.996235468E+02  1.581709583E+02  1.682705478E-01 
        60  3.495651588E-02  1.281329458E-01  1.145394580E-01  1.077836877E+05  2.616552997E+02  3.445758228E+02  2.956789870E+02  1.827353415E+02  1.836787136E-01 
        61  3.433795015E-02  1.285471243E-01  1.174457346E-01  1.079373142E+05  2.681974230E+02  3.433785620E+02  2.936233768E+02  1.957588158E+02  1.885412289E-01 
        62  3.376061330E-02  1.289460490E-01  1.203607660E-01  1.079619200E+05  2.709880123E+02  3.430346060E+02  2.930345840E+02  2.002862854E+02  1.887396309E-01 
        63  3.331803132E-02  1.293309423E-01  1.232882868E-01  1.079294297E+05  2.722367786E+02  3.430196983E+02  2.930089937E+02  2.013586986E+02  1.867172670E-01 
        64  3.310586596E-02  1.296649637E-01  1.262581306E-01  1.078565870E+05  2.731497524E+02  3.430391674E+02  2.930423326E+02  2.017083877E+02  1.842622935E-01 
        65  3.306639982E-02  1.299493947E-01  1.292495641E-01  1.077462569E+05  2.739987332E+02  3.430276308E+02  2.930226040E+02  2.021086850E+02  1.823779082E-01 
        66  3.322486525E-02  1.302097713E-01  1.322380794E-01  1.076004176E+05  2.749030742E+02  3.429803374E+02  2.929417889E+02  2.028378401E+02  1.815127044E-01 
        67  3.356462385E-02  1.304573038E-01  1.352130229E-01  1.074287812E+05  2.758708395E+02  3.429117419E+02  2.928246176E+02  2.039067449E+02  1.818162670E-01 
        68  3.400410102E-02  1.306751199E-01  1.381765647E-01  1.072126932E+05  2.768977461E+02  3.428189077E+02  2.926661036E+02  2.052186701E+02  1.825311445E-01 
        69  3.451963359E-02  1.308741206E-01  1.411278790E-01  1.069622367E+05  2.779814315E+02  3.427089729E+02  2.924784007E+02  2.067188344E+02  1.836319037E-01 
        70  3.508991352E-02  1.310576265E-01  1.440660380E-01  1.066923643E+05  2.790974715E+02  3.425848742E+02  2.922666557E+02  2.083547041E+02  1.850492451E-01 
        71  3.570211579E-02  1.312503676E-01  1.470000000E-01  1.063309297E+05  2.801968422E+02  3.424533958E+02  2.920435295E+02  2.100113716E+02  1.863696873E-01 
        72 -2.843361623E-02  1.708417341E-01 -4.258217492E-02  8.201756396E+04  1.838654628E+02  3.299612131E+02  2.711244230E+02  3.443638821E+02  1.007422626E+00 
        73 -2.838826984E-02  1.709653765E-01 -3.916427879E-02  8.200189105E+04  1.842326272E+02  3.299560900E+02  2.711160297E+02  3.445611448E+02  1.006525580E+00 
        74 -2.835908450E-02  1.711140563E-01 -3.574649433E-02  8.232947699E+04  1.839614904E+02  3.301493433E+02  2.714337943E+02  3.438523962E+02  1.006175246E+00 
        75 -2.838361088E-02  1.712589164E-01 -3.232950605E-02  8.305471753E+04  1.828037701E+02  3.305702562E+02  2.721264019E+02  3.420443583E+02  1.006916128E+00 
        76 -2.841360827E-02  1.714319125E-01 -2.891476756E-02  8.388651563E+04  1.812532015E+02  3.310447540E+02  2.729080667E+02  3.399898705E+02  1.008628005E+00 
        77 -2.833774301E-02  1.716334782E-01 -2.549995819E-02  8.446336288E+04  1.800294915E+02  3.313652203E+02  2.734366364E+02  3.386796242E+02  1.010581694E+00 
        78 -2.791452343E-02  1.719215161E-01 -2.212016887E-02  8.464883350E+04  1.793476725E+02  3.314627018E+02  2.735975809E+02  3.384991779E+02  1.012658272E+00 
        79 -2.700703325E-02  1.722886754E-01 -1.884820631E-02  8.430993750E+04  1.794589877E+02  3.312662430E+02  2.732734270E+02  3.397431383E+02  1.014468666E+00 
        80 -2.544395246E-02  1.727209334E-01 -1.584518523E-02  8.312354694E+04  1.812448192E+02  3.305925350E+02  2.721632051E+02  3.432746301E+02  1.014574805E+00 
        81 -2.351536464E-02  1.732363399E-01 -1.306823492E-02  8.101598389E+04  1.854327819E+02  3.293784870E+02  2.701683129E+02  3.493994741E+02  1.011374429E+00 
        82 -2.134527601E-02  1.737374909E-01 -1.047435973E-02  7.811261252E+04  1.923369543E+02  3.276602230E+02  2.673572815E+02  3.577225913E+02  1.003588663E+00 
        83 -1.897326710E-02  1.742189522E-01 -8.035177519E-03  7.511775635E+04  2.004846916E+02  3.258302002E+02  2.643790066E+02  3.663165561E+02  9.928546245E-01 
        84 -1.652827274E-02  1.746780172E-01 -5.688541800E-03  7.305210345E+04  2.068012538E+02  3.245340705E+02  2.622794175E+02  3.723420296E+02  9.836810101E-01 
        85 -1.397929867E-02  1.751251779E-01 -3.446989688E-03  7.239223364E+04  2.098346057E+02  3.241259794E+02  2.616200376E+02  3.745092874E+02  9.778408874E-01 
        86 -1.139011487E-02  1.755573757E-01 -1.256774906E-03  7.429904944E+04  2.080937107E+02  3.253264065E+02  2.635636797E+02  3.695159650E+02  9.733943064E-01 
        87 -8.734274343E-03  1.759085237E-01  8.667805443E-04  7.943701459E+04  2.027420006E+02  3.284185545E+02  2.686025994E+02  3.557845826E+02  9.648854397E-01 
        88 -6.073383534E-03  1.762548475E-01  2.984781313E-03  8.974663031E+04  1.901297826E+02  3.342178910E+02  2.781723270E+02  3.277739995E+02  9.611369059E-01 
        89 -3.359730182E-03  1.765819110E-01  5.053045394E-03  9.802439496E+04  1.760444876E+02  3.384717469E+02  2.852922790E+02  3.053741598E+02  9.799400964E-01 
        90 -6.741955509E-04  1.768270807E-01  7.130208361E-03  9.863716737E+04  1.631792247E+02  3.387547056E+02  2.857703253E+02  3.044705674E+02  1.024149559E+00 
        91  2.027043660E-03  1.770783858E-01  9.208570588E-03  7.689568699E+04  1.981198012E+02  3.268653124E+02  2.660718524E+02  3.633883096E+02  9.953732567E-01 
        92  4.731686997E-03  1.772422585E-01  1.127155269E-02  7.299510182E+04  2.110489848E+02  3.245546881E+02  2.623150650E+02  3.749722337E+02  9.742661263E-01 
        93  7.454465044E-03  1.773874983E-01  1.334309669E-02  7.333376601E+04  2.085720508E+02  3.247824188E+02  2.626835779E+02  3.733911218E+02  9.792490932E-01 
        94  1.015989937E-02  1.775222933E-01  1.545596277E-02  6.997376510E+04  2.187170897E+02  3.225968503E+02  2.591631628E+02  3.836352851E+02  9.664496086E-01 
        95  1.284858280E-02  1.775661421E-01  1.756817794E-02  6.666738373E+04  2.285825462E+02  3.203608851E+02  2.555834755E+02  3.932312119E+02  9.540920248E-01 
        96  1.551966693E-02  1.776138061E-01  1.970369132E-02  6.379318793E+04  2.375958006E+02  3.183413048E+02  2.523713112E+02  4.016892271E+02  9.428044418E-01 
        97  1.817410325E-02  1.776258069E-01  2.186017323E-02  6.142297144E+04  2.459211137E+02  3.166133499E+02  2.496379242E+02  4.088101282E+02  9.312497228E-01 
        98  2.080993586E-02  1.775631240E-01  2.403936301E-02  5.976620032E+04  2.529867215E+02  3.154090652E+02  2.477397909E+02  4.137554970E+02  9.191549812E-01 
        99  2.341570779E-02  1.774969016E-01  2.625394818E-02  5.953363843E+04  2.578564787E+02  3.152412052E+02  2.474775796E+02  4.152848692E+02  9.064417668E-01 
       100  2.600295182E-02  1.773818036E-01  2.848806157E-02  6.236695557E+04  2.575560360E+02  3.173175421E+02  2.507793503E+02  4.082216148E+02  8.915951252E-01 
       101  2.856627515E-02  1.771883875E-01  3.074502562E-02  6.924151489E+04  2.502983866E+02  3.221068439E+02  2.584430609E+02  3.884882498E+02  8.733497635E-01 
       102  3.110662233E-02  1.769811535E-01  3.302644514E-02  7.684056128E+04  2.431311245E+02  3.271002426E+02  2.664881325E+02  3.661820993E+02  8.513605837E-01 
       103  3.362247542E-02  1.767159818E-01  3.532849163E-02  8.061606750E+04  2.437715292E+02  3.294673367E+02  2.703212676E+02  3.555160685E+02  8.280839957E-01 
       104  3.610895472E-02  1.763647845E-01  3.765120331E-02  8.025568896E+04  2.505798223E+02  3.292071776E+02  2.698887987E+02  3.572030802E+02  8.083701227E-01 
       105  3.856497337E-02  1.759966372E-01  4.000321012E-02  7.835881772E+04  2.584807364E+02  3.280521430E+02  2.679979372E+02  3.628141178E+02  7.925228761E-01 
       106  4.103059304E-02  1.755360248E-01  4.234569910E-02  7.718858978E+04  2.651969530E+02  3.273600525E+02  2.668670690E+02  3.665406202E+02  7.771670348E-01 
       107  4.340106546E-02  1.750377176E-01  4.474435622E-02  7.938836128E+04  2.664891942E+02  3.286804432E+02  2.690315151E+02  3.614734400E+02  7.632840862E-01 
       108  4.575540032E-02  1.745445103E-01  4.717695363E-02  8.527880286E+04  2.616683302E+02  3.320853033E+02  2.746409535E+02  3.450357361E+02  7.494500019E-01 
       109  4.807037784E-02  1.739953488E-01  4.963532790E-02  9.117121460E+04  2.581562958E+02  3.352718878E+02  2.799282494E+02  3.286145163E+02  7.325499542E-01 
       110  5.034733117E-02  1.734133857E-01  5.212084081E-02  9.500712305E+04  2.582296982E+02  3.372305565E+02  2.832046795E+02  3.186288280E+02  7.156151980E-01 
       111  5.258765486E-02  1.728405975E-01  5.464144749E-02  9.810231250E+04  2.587005157E+02  3.387810802E+02  2.858148403E+02  3.106099930E+02  7.011858225E-01 
       112  5.479076840E-02  1.722430532E-01  5.718902978E-02  1.013270276E+05  2.584563999E+02  3.403510752E+02  2.884697371E+02  3.020222836E+02  6.888162065E-01 
       113  5.694737683E-02  1.716020731E-01  5.976586917E-02  1.045006357E+05  2.579587741E+02  3.418490362E+02  2.910137653E+02  2.935079644E+02  6.779042045E-01 
       114  5.911848447E-02  1.709340834E-01  6.233872565E-02  1.074517507E+05  2.572721887E+02  3.432061708E+02  2.933284896E+02  2.855657607E+02  6.690445708E-01 
       115  6.119351897E-02  1.703313828E-01  6.496775561E-02  1.101018494E+05  2.564833608E+02  3.443957310E+02  2.953653445E+02  2.785011601E+02  6.625642404E-01 
       116  6.319798910E-02  1.696485115E-01  6.765543605E-02  1.125106921E+05  2.556968713E+02  3.454543538E+02  2.971835876E+02  2.719755683E+02  6.569590298E-01 
       117  6.520189851E-02  1.689621155E-01  7.034628384E-02  1.147727266E+05  2.548301640E+02  3.464355650E+02  2.988740749E+02  2.659315948E+02  6.528594438E-01 
       118  6.717992039E-02  1.682884043E-01  7.305807409E-02  1.171604688E+05  2.533142567E+02  3.474753733E+02  3.006708031E+02  2.594780254E+02  6.513468940E-01 
       119  6.910755662E-02  1.675987334E-01  7.579818779E-02  1.193265618E+05  2.502122629E+02  3.483765705E+02  3.022324536E+02  2.536252670E+02  6.577536445E-01 
       120  7.101404689E-02  1.668389198E-01  7.852135391E-02  1.202781649E+05  2.466988218E+02  3.487674184E+02  3.029110343E+02  2.506166880E+02  6.690412797E-01 
