nodenumber     x-coordinate     y-coordinate     z-coordinate         pressure velocity-magnitude      sound-speed      temperature rel-velocity-magnitude relative-velocity-angle 
         1 -2.216901913E-02  1.039879580E-01 -4.300600202E-02  8.754806747E+04  1.539495419E+02  3.330500952E+02  2.762244061E+02  2.357964027E+02  8.594526850E-01 
         2 -2.197401757E-02  1.042260031E-01 -4.002397295E-02  8.746554471E+04  1.544287936E+02  3.330059628E+02  2.761511704E+02  2.363426138E+02  8.589480456E-01 
         3 -2.150271627E-02  1.045375264E-01 -3.708169353E-02  8.735877789E+04  1.550460249E+02  3.329484034E+02  2.760557675E+02  2.370094563E+02  8.582085292E-01 
         4 -2.072290556E-02  1.049359494E-01 -3.421635317E-02  8.724043860E+04  1.557294097E+02  3.328865600E+02  2.759531698E+02  2.377379761E+02  8.573970813E-01 
         5 -1.964621854E-02  1.053757771E-01 -3.145501365E-02  8.712304370E+04  1.564268203E+02  3.328257275E+02  2.758523145E+02  2.384953551E+02  8.566679880E-01 
         6 -1.833909717E-02  1.058829391E-01 -2.880182754E-02  8.700002344E+04  1.571426597E+02  3.327623892E+02  2.757473578E+02  2.393767881E+02  8.563244641E-01 
         7 -1.686396899E-02  1.064019756E-01 -2.624136390E-02  8.684396045E+04  1.579440589E+02  3.326798353E+02  2.756105814E+02  2.403503318E+02  8.558705207E-01 
         8 -1.524276490E-02  1.069101094E-01 -2.376908005E-02  8.662494556E+04  1.589465985E+02  3.325621924E+02  2.754156280E+02  2.414770675E+02  8.548856061E-01 
         9 -1.353040875E-02  1.074492491E-01 -2.136449246E-02  8.638596643E+04  1.601411641E+02  3.324312468E+02  2.751988232E+02  2.427629535E+02  8.534585359E-01 
        10 -1.175719847E-02  1.079385502E-01 -1.899452623E-02  8.617832654E+04  1.614419324E+02  3.323159108E+02  2.750079620E+02  2.439396284E+02  8.511167103E-01 
        11 -9.920451205E-03  1.084473482E-01 -1.667649769E-02  8.605484247E+04  1.626885899E+02  3.322465872E+02  2.748932449E+02  2.448320129E+02  8.480747601E-01 
        12 -8.053093039E-03  1.089314126E-01 -1.437870322E-02  8.620222858E+04  1.631667441E+02  3.323284243E+02  2.750286425E+02  2.445888585E+02  8.451763662E-01 
        13 -6.139911673E-03  1.093816015E-01 -1.211111235E-02  8.664987378E+04  1.626549602E+02  3.325741100E+02  2.754354076E+02  2.432657037E+02  8.439295348E-01 
        14 -4.213714023E-03  1.098625599E-01 -9.853315987E-03  8.746100879E+04  1.607236814E+02  3.329994164E+02  2.761404247E+02  2.406780519E+02  8.461415507E-01 
        15 -2.267252226E-03  1.102821410E-01 -7.616721013E-03  8.851432861E+04  1.564722242E+02  3.335765076E+02  2.770984430E+02  2.371279011E+02  8.579972647E-01 
        16 -3.058463972E-04  1.106716081E-01 -5.380345181E-03  8.937602368E+04  1.499393873E+02  3.339932127E+02  2.777913504E+02  2.343791232E+02  8.854481298E-01 
        17  1.649896870E-03  1.110991589E-01 -3.144821902E-03  8.742226929E+04  1.462717509E+02  3.330009756E+02  2.761447551E+02  2.420599875E+02  9.330730597E-01 
        18  3.605378217E-03  1.114680886E-01 -8.997268064E-04  7.580170593E+04  1.752361071E+02  3.263052750E+02  2.651502891E+02  2.842927694E+02  9.339907970E-01 
        19  5.548952344E-03  1.118349081E-01  1.356589372E-03  6.988583228E+04  2.081852005E+02  3.227167647E+02  2.593531878E+02  3.066570027E+02  8.475975194E-01 
        20  7.472030685E-03  1.121892539E-01  3.633809071E-03  7.273369106E+04  2.125788810E+02  3.245019191E+02  2.622331967E+02  2.989024699E+02  7.914095654E-01 
        21  9.366594022E-03  1.125505666E-01  5.932977735E-03  7.638484979E+04  2.086954285E+02  3.267812831E+02  2.659278123E+02  2.859646561E+02  7.607061891E-01 
        22  1.122147558E-02  1.129077905E-01  8.263617067E-03  7.872580654E+04  2.084941690E+02  3.282307211E+02  2.682899806E+02  2.772304915E+02  7.287664635E-01 
        23  1.303284284E-02  1.132507638E-01  1.062953057E-02  8.029353654E+04  2.111827348E+02  3.291347750E+02  2.697690484E+02  2.716646962E+02  6.948932496E-01 
        24  1.479928419E-02  1.136234762E-01  1.303021626E-02  8.151903423E+04  2.155887406E+02  3.297812930E+02  2.708298982E+02  2.678129279E+02  6.586570486E-01 
        25  1.649617427E-02  1.139938279E-01  1.547769530E-02  8.261653546E+04  2.204709420E+02  3.303205886E+02  2.717163002E+02  2.645892062E+02  6.223034514E-01 
        26  1.811807173E-02  1.143837002E-01  1.797032872E-02  8.338724316E+04  2.260421796E+02  3.306599989E+02  2.722745719E+02  2.627467117E+02  5.875021722E-01 
        27  1.968166241E-02  1.148013513E-01  2.049621310E-02  8.353183887E+04  2.330970936E+02  3.306709564E+02  2.722925384E+02  2.631903248E+02  5.533024645E-01 
        28  2.119101764E-02  1.152299366E-01  2.305322148E-02  8.303569600E+04  2.417331165E+02  3.303840037E+02  2.718201798E+02  2.658473093E+02  5.187793154E-01 
        29  2.266338778E-02  1.156643914E-01  2.563116057E-02  8.241474622E+04  2.505723915E+02  3.300373807E+02  2.712501358E+02  2.688855076E+02  4.847014274E-01 
        30  2.408077791E-02  1.161159634E-01  2.823658064E-02  8.189341016E+04  2.585144918E+02  3.298097019E+02  2.708759117E+02  2.712955694E+02  4.532939014E-01 
        31  2.544088325E-02  1.165921105E-01  3.086849856E-02  8.135830530E+04  2.664631071E+02  3.295466900E+02  2.704441864E+02  2.740504293E+02  4.234200609E-01 
        32  2.674433127E-02  1.170738851E-01  3.352942364E-02  8.078440186E+04  2.744603651E+02  3.292626967E+02  2.699782083E+02  2.770950344E+02  3.945638733E-01 
        33  2.797950643E-02  1.175445507E-01  3.622298897E-02  8.023938416E+04  2.823446755E+02  3.290057148E+02  2.695567760E+02  2.799735594E+02  3.657638158E-01 
        34  2.916313541E-02  1.180056499E-01  3.893937175E-02  7.994263440E+04  2.896507579E+02  3.288509252E+02  2.693032967E+02  2.820102073E+02  3.368200586E-01 
        35  3.031249539E-02  1.184785399E-01  4.167042727E-02  8.009383585E+04  2.954764144E+02  3.289103355E+02  2.694007394E+02  2.824798799E+02  3.096558418E-01 
        36  3.139929926E-02  1.189405785E-01  4.442941843E-02  8.037829346E+04  3.006612815E+02  3.290933578E+02  2.697007347E+02  2.822853528E+02  2.831957047E-01 
        37  3.242013936E-02  1.193808800E-01  4.721660669E-02  8.086897025E+04  3.057325483E+02  3.292949108E+02  2.700313186E+02  2.813637472E+02  2.541883443E-01 
        38  3.340677803E-02  1.198011670E-01  5.002067675E-02  8.203904825E+04  3.086016339E+02  3.299096998E+02  2.710407491E+02  2.781394850E+02  2.276051682E-01 
        39  3.430413654E-02  1.201853153E-01  5.285529857E-02  8.356608667E+04  3.103753109E+02  3.308040171E+02  2.725126944E+02  2.736822338E+02  2.018427253E-01 
        40  3.515433510E-02  1.205874318E-01  5.570324370E-02  8.543675146E+04  3.108846474E+02  3.318627224E+02  2.742601643E+02  2.680797882E+02  1.783619290E-01 
        41  3.592907297E-02  1.209644065E-01  5.857535950E-02  8.758410352E+04  3.099779840E+02  3.330348644E+02  2.762013636E+02  2.614809861E+02  1.587384827E-01 
        42  3.664355424E-02  1.213334730E-01  6.146049591E-02  8.989766162E+04  3.076413980E+02  3.342287765E+02  2.781852808E+02  2.542775755E+02  1.449134441E-01 
        43  3.727845098E-02  1.217084379E-01  6.437276718E-02  9.215524268E+04  3.042968664E+02  3.354048014E+02  2.801460981E+02  2.472551823E+02  1.379972221E-01 
        44  3.781448665E-02  1.220744111E-01  6.730672953E-02  9.407093652E+04  3.006413641E+02  3.364551802E+02  2.819028997E+02  2.412506557E+02  1.375621906E-01 
        45  3.826762164E-02  1.224563704E-01  7.025293559E-02  9.541896075E+04  2.978139224E+02  3.371968198E+02  2.831465485E+02  2.372993139E+02  1.411013416E-01 
        46  3.856443464E-02  1.228195695E-01  7.317567491E-02  9.618643359E+04  2.958154221E+02  3.376828156E+02  2.839634323E+02  2.349851685E+02  1.464397721E-01 
        47  3.882754171E-02  1.231963568E-01  7.616928387E-02  9.659627219E+04  2.935242779E+02  3.383730675E+02  2.851264809E+02  2.325023398E+02  1.532511999E-01 
        48  3.896508106E-02  1.235573809E-01  7.913505459E-02  9.673684766E+04  2.898288651E+02  3.393182602E+02  2.867326813E+02  2.269159241E+02  1.584113650E-01 
        49  3.903512947E-02  1.239238609E-01  8.213137167E-02  9.671414551E+04  2.814798224E+02  3.411093800E+02  2.897922637E+02  2.129290030E+02  1.674289994E-01 
        50  3.900153017E-02  1.243001337E-01  8.510504302E-02  9.655788657E+04  2.665140378E+02  3.441907312E+02  2.950669100E+02  1.862166753E+02  1.749373533E-01 
        51  3.889299026E-02  1.246700891E-01  8.806950082E-02  9.640498627E+04  2.503083720E+02  3.477580571E+02  3.012163889E+02  1.447256014E+02  1.559382456E-01 
        52  3.870303970E-02  1.250405990E-01  9.105247242E-02  9.643784180E+04  2.413668404E+02  3.505686660E+02  3.060768151E+02  1.062954451E+02  7.079769325E-02 
        53  3.847530202E-02  1.253810613E-01  9.402032493E-02  9.678579672E+04  2.389591652E+02  3.521500527E+02  3.088389747E+02  7.317269133E+01 -1.779630015E-01 
        54  3.809583015E-02  1.257752167E-01  9.695318516E-02  9.832922461E+04  2.407224731E+02  3.529568253E+02  3.102429543E+02  4.958770514E+01 -8.817848265E-01 
        55  3.767199372E-02  1.261489404E-01  9.992435767E-02  1.004654102E+05  2.431643591E+02  3.531636896E+02  3.105982780E+02  4.248852146E+01 -1.088039156E+00 
        56  3.723780727E-02  1.265196365E-01  1.028569506E-01  1.034031051E+05  2.385337548E+02  3.528257284E+02  3.100055765E+02  5.801819725E+01 -4.058753307E-01 
        57  3.672955052E-02  1.269046997E-01  1.057947981E-01  1.058359147E+05  2.369987426E+02  3.515081167E+02  3.077016411E+02  9.586211371E+01  3.466488596E-02 
        58  3.615520807E-02  1.273091289E-01  1.087154776E-01  1.071103672E+05  2.443154325E+02  3.489997168E+02  3.033315935E+02  1.393192992E+02  1.539968746E-01 
        59  3.556812424E-02  1.277144368E-01  1.116309472E-01  1.075937150E+05  2.550903585E+02  3.462108085E+02  2.984976840E+02  1.726731883E+02  1.919451775E-01 
        60  3.495651588E-02  1.281329458E-01  1.145394580E-01  1.077842637E+05  2.633069496E+02  3.442223177E+02  2.950710487E+02  1.901785264E+02  1.983166696E-01 
        61  3.433795015E-02  1.285471243E-01  1.174457346E-01  1.078110762E+05  2.678372991E+02  3.432440033E+02  2.933928962E+02  1.968527660E+02  1.943983871E-01 
        62  3.376061330E-02  1.289460490E-01  1.203607660E-01  1.078132643E+05  2.700488198E+02  3.429581280E+02  2.929039495E+02  1.989139812E+02  1.895556012E-01 
        63  3.331803132E-02  1.293309423E-01  1.232882868E-01  1.078399953E+05  2.715504738E+02  3.429393604E+02  2.928718104E+02  1.998650289E+02  1.855483310E-01 
        64  3.310586596E-02  1.296649637E-01  1.262581306E-01  1.078172314E+05  2.726980653E+02  3.429797323E+02  2.929407809E+02  2.006005286E+02  1.830449221E-01 
        65  3.306639982E-02  1.299493947E-01  1.292495641E-01  1.077877707E+05  2.736917127E+02  3.430192088E+02  2.930082701E+02  2.014097570E+02  1.817478809E-01 
        66  3.322486525E-02  1.302097713E-01  1.322380794E-01  1.077040614E+05  2.745758013E+02  3.430231032E+02  2.930148650E+02  2.023205738E+02  1.816617829E-01 
        67  3.356462385E-02  1.304573038E-01  1.352130229E-01  1.075093591E+05  2.755775669E+02  3.429397241E+02  2.928724797E+02  2.035193607E+02  1.822200288E-01 
        68  3.400410102E-02  1.306751199E-01  1.381765647E-01  1.072678708E+05  2.765753410E+02  3.428278189E+02  2.926813402E+02  2.048408623E+02  1.831434674E-01 
        69  3.451963359E-02  1.308741206E-01  1.411278790E-01  1.070187732E+05  2.776213913E+02  3.427208953E+02  2.924988139E+02  2.063706667E+02  1.845697900E-01 
        70  3.508991352E-02  1.310576265E-01  1.440660380E-01  1.067356378E+05  2.787399380E+02  3.425983343E+02  2.922896245E+02  2.080700855E+02  1.861880880E-01 
        71  3.570211579E-02  1.312503676E-01  1.470000000E-01  1.063200596E+05  2.801194038E+02  3.424221344E+02  2.919895439E+02  2.100975285E+02  1.871547978E-01 
        72 -2.843361623E-02  1.708417341E-01 -4.258217492E-02  8.202850708E+04  1.837139478E+02  3.299681273E+02  2.711358118E+02  3.440669537E+02  1.007405724E+00 
        73 -2.838826984E-02  1.709653765E-01 -3.916427879E-02  8.201497998E+04  1.843234994E+02  3.299456775E+02  2.710989130E+02  3.448416872E+02  1.006742349E+00 
        74 -2.835908450E-02  1.711140563E-01 -3.574649433E-02  8.234183319E+04  1.838253170E+02  3.301519032E+02  2.714379210E+02  3.438925092E+02  1.006722090E+00 
        75 -2.838361088E-02  1.712589164E-01 -3.232950605E-02  8.300028003E+04  1.827654443E+02  3.305432920E+02  2.720820303E+02  3.421205235E+02  1.007202663E+00 
        76 -2.841360827E-02  1.714319125E-01 -2.891476756E-02  8.380744690E+04  1.815232587E+02  3.309740043E+02  2.727914448E+02  3.404630132E+02  1.008569742E+00 
        77 -2.833774301E-02  1.716334782E-01 -2.549995819E-02  8.433848792E+04  1.805307747E+02  3.312804199E+02  2.732966754E+02  3.390418273E+02  1.009500047E+00 
        78 -2.791452343E-02  1.719215161E-01 -2.212016887E-02  8.449460205E+04  1.799424706E+02  3.313622360E+02  2.734317636E+02  3.389896717E+02  1.011471815E+00 
        79 -2.700703325E-02  1.722886754E-01 -1.884820631E-02  8.424361035E+04  1.797607622E+02  3.312258158E+02  2.732067766E+02  3.396257381E+02  1.013267130E+00 
        80 -2.544395246E-02  1.727209334E-01 -1.584518523E-02  8.316178900E+04  1.812958425E+02  3.306123197E+02  2.721959064E+02  3.429815066E+02  1.013969366E+00 
        81 -2.351536464E-02  1.732363399E-01 -1.306823492E-02  8.124366711E+04  1.851054037E+02  3.295022944E+02  2.703715951E+02  3.489972233E+02  1.011913911E+00 
        82 -2.134527601E-02  1.737374909E-01 -1.047435973E-02  7.859530112E+04  1.912268116E+02  3.279405457E+02  2.678150831E+02  3.568204292E+02  1.005851335E+00 
        83 -1.897326710E-02  1.742189522E-01 -8.035177519E-03  7.556890329E+04  1.992671484E+02  3.260677657E+02  2.647657739E+02  3.652832835E+02  9.952169163E-01 
        84 -1.652827274E-02  1.746780172E-01 -5.688541800E-03  7.304120477E+04  2.069500244E+02  3.245121422E+02  2.622457805E+02  3.727639365E+02  9.844527105E-01 
        85 -1.397929867E-02  1.751251779E-01 -3.446989688E-03  7.240771460E+04  2.108892565E+02  3.240413671E+02  2.614851995E+02  3.748562083E+02  9.755960256E-01 
        86 -1.139011487E-02  1.755573757E-01 -1.256774906E-03  7.406903308E+04  2.096414034E+02  3.251107597E+02  2.632147274E+02  3.709295783E+02  9.715732578E-01 
        87 -8.734274343E-03  1.759085237E-01  8.667805443E-04  7.943106372E+04  2.021776417E+02  3.285404088E+02  2.688027494E+02  3.562260993E+02  9.678615434E-01 
        88 -6.073383534E-03  1.762548475E-01  2.984781313E-03  8.873199512E+04  1.910414302E+02  3.335836704E+02  2.771185807E+02  3.297501314E+02  9.612169606E-01 
        89 -3.359730182E-03  1.765819110E-01  5.053045394E-03  9.865736389E+04  1.761067247E+02  3.384330871E+02  2.852288283E+02  3.038637469E+02  9.790320816E-01 
        90 -6.741955509E-04  1.768270807E-01  7.130208361E-03  9.801365565E+04  1.662575281E+02  3.381748386E+02  2.847941329E+02  3.072189428E+02  1.016691166E+00 
        91  2.027043660E-03  1.770783858E-01  9.208570588E-03  7.923473177E+04  1.918711365E+02  3.282531688E+02  2.683296965E+02  3.585855484E+02  1.007530451E+00 
        92  4.731686997E-03  1.772422585E-01  1.127155269E-02  7.234788190E+04  2.150702304E+02  3.240351191E+02  2.614786499E+02  3.766390964E+02  9.649095417E-01 
        93  7.454465044E-03  1.773874983E-01  1.334309669E-02  7.305950444E+04  2.103277789E+02  3.244008159E+02  2.620659603E+02  3.739903886E+02  9.748313045E-01 
        94  1.015989937E-02  1.775222933E-01  1.545596277E-02  7.046437739E+04  2.174784256E+02  3.228472984E+02  2.595664240E+02  3.817523829E+02  9.668768084E-01 
        95  1.284858280E-02  1.775661421E-01  1.756817794E-02  6.706608917E+04  2.278145137E+02  3.206726974E+02  2.560816247E+02  3.910578244E+02  9.521185528E-01 
        96  1.551966693E-02  1.776138061E-01  1.970369132E-02  6.423374860E+04  2.370214639E+02  3.186880395E+02  2.529226105E+02  4.003306427E+02  9.418296777E-01 
        97  1.817410325E-02  1.776258069E-01  2.186017323E-02  6.187766394E+04  2.457141535E+02  3.169775748E+02  2.502130179E+02  4.084225001E+02  9.310669247E-01 
        98  2.080993586E-02  1.775631240E-01  2.403936301E-02  6.023174451E+04  2.524800906E+02  3.159436364E+02  2.485799227E+02  4.131668835E+02  9.193973839E-01 
        99  2.341570779E-02  1.774969016E-01  2.625394818E-02  5.984103564E+04  2.571598568E+02  3.157782669E+02  2.483199134E+02  4.142407608E+02  9.061903860E-01 
       100  2.600295182E-02  1.773818036E-01  2.848806157E-02  6.162796460E+04  2.583928919E+02  3.171112299E+02  2.504356308E+02  4.094141321E+02  8.911154270E-01 
       101  2.856627515E-02  1.771883875E-01  3.074502562E-02  6.707801538E+04  2.535605097E+02  3.208883982E+02  2.564796829E+02  3.935890064E+02  8.732560463E-01 
       102  3.110662233E-02  1.769811535E-01  3.302644514E-02  7.525969873E+04  2.458845253E+02  3.261489658E+02  2.649605122E+02  3.704401217E+02  8.511374574E-01 
       103  3.362247542E-02  1.767159818E-01  3.532849163E-02  8.156272302E+04  2.432558808E+02  3.298980865E+02  2.710400734E+02  3.533645315E+02  8.262716159E-01 
       104  3.610895472E-02  1.763647845E-01  3.765120331E-02  8.238325256E+04  2.481162312E+02  3.303157539E+02  2.717119665E+02  3.511338816E+02  8.058462301E-01 
       105  3.856497337E-02  1.759966372E-01  4.000321012E-02  7.984778870E+04  2.565769315E+02  3.288255457E+02  2.692654967E+02  3.589652185E+02  7.919475869E-01 
       106  4.103059304E-02  1.755360248E-01  4.234569910E-02  7.805744590E+04  2.642606089E+02  3.277295149E+02  2.674701766E+02  3.650796820E+02  7.774763703E-01 
       107  4.340106546E-02  1.750377176E-01  4.474435622E-02  7.922847997E+04  2.666951121E+02  3.284864542E+02  2.687100122E+02  3.615822698E+02  7.626243189E-01 
       108  4.575540032E-02  1.745445103E-01  4.717695363E-02  8.361504785E+04  2.643613491E+02  3.309712663E+02  2.727976737E+02  3.493161187E+02  7.478996404E-01 
       109  4.807037784E-02  1.739953488E-01  4.963532790E-02  8.980001782E+04  2.596079712E+02  3.343075867E+02  2.783255816E+02  3.322083511E+02  7.339808103E-01 
       110  5.034733117E-02  1.734133857E-01  5.212084081E-02  9.507775439E+04  2.575764637E+02  3.369850864E+02  2.827945652E+02  3.183169785E+02  7.176032849E-01 
       111  5.258765486E-02  1.728405975E-01  5.464144749E-02  9.838544678E+04  2.585755749E+02  3.386804905E+02  2.856447620E+02  3.101020794E+02  7.008499950E-01 
       112  5.479076840E-02  1.722430532E-01  5.718902978E-02  1.010618542E+05  2.592545748E+02  3.401033926E+02  2.880500126E+02  3.032165337E+02  6.877156459E-01 
       113  5.694737683E-02  1.716020731E-01  5.976586917E-02  1.041438019E+05  2.583897719E+02  3.416491730E+02  2.906738157E+02  2.945662136E+02  6.779951993E-01 
       114  5.911848447E-02  1.709340834E-01  6.233872565E-02  1.075234170E+05  2.572973141E+02  3.431282725E+02  2.931955255E+02  2.855417733E+02  6.689134148E-01 
       115  6.119351897E-02  1.703313828E-01  6.496775561E-02  1.105821033E+05  2.558038206E+02  3.444695263E+02  2.954922304E+02  2.774986320E+02  6.639474202E-01 
       116  6.319798910E-02  1.696485115E-01  6.765543605E-02  1.133503694E+05  2.542784534E+02  3.456929603E+02  2.975944667E+02  2.702048640E+02  6.603538031E-01 
       117  6.520189851E-02  1.689621155E-01  7.034628384E-02  1.155247603E+05  2.533066082E+02  3.466662817E+02  2.992724047E+02  2.642084618E+02  6.568639316E-01 
       118  6.717992039E-02  1.682884043E-01  7.305807409E-02  1.171843276E+05  2.518628654E+02  3.474341421E+02  3.005994158E+02  2.596136866E+02  6.573820952E-01 
       119  6.910755662E-02  1.675987334E-01  7.579818779E-02  1.187363149E+05  2.507025774E+02  3.479821837E+02  3.015484591E+02  2.557829275E+02  6.581637939E-01 
       120  7.101404689E-02  1.668389198E-01  7.852135391E-02  1.197874261E+05  2.479071306E+02  3.484844358E+02  3.024196384E+02  2.536846464E+02  6.672944133E-01 
