nodenumber     x-coordinate     y-coordinate     z-coordinate         pressure velocity-magnitude      sound-speed      temperature rel-velocity-magnitude relative-velocity-angle 
         1 -2.216901913E-02  1.039879580E-01 -4.300600202E-02  8.754500497E+04  1.538983173E+02  3.330455917E+02  2.762169609E+02  2.358038629E+02  8.598203998E-01 
         2 -2.197401757E-02  1.042260031E-01 -4.002397295E-02  8.744638736E+04  1.548586258E+02  3.329587741E+02  2.760729105E+02  2.366406145E+02  8.576840886E-01 
         3 -2.150271627E-02  1.045375264E-01 -3.708169353E-02  8.735441644E+04  1.548843467E+02  3.329636152E+02  2.760809927E+02  2.368894994E+02  8.586777626E-01 
         4 -2.072290556E-02  1.049359494E-01 -3.421635317E-02  8.723575488E+04  1.553268929E+02  3.329256325E+02  2.760180278E+02  2.373242257E+02  8.583137449E-01 
         5 -1.964621854E-02  1.053757771E-01 -3.145501365E-02  8.710665796E+04  1.562977133E+02  3.328273344E+02  2.758551536E+02  2.385587835E+02  8.577420656E-01 
         6 -1.833909717E-02  1.058829391E-01 -2.880182754E-02  8.696822144E+04  1.571716094E+02  3.327433176E+02  2.757159243E+02  2.392621837E+02  8.558859453E-01 
         7 -1.686396899E-02  1.064019756E-01 -2.624136390E-02  8.677486230E+04  1.582982740E+02  3.326171932E+02  2.755068283E+02  2.406321039E+02  8.551147599E-01 
         8 -1.524276490E-02  1.069101094E-01 -2.376908005E-02  8.657191565E+04  1.589563744E+02  3.325352616E+02  2.753711066E+02  2.414737668E+02  8.548833895E-01 
         9 -1.353040875E-02  1.074492491E-01 -2.136449246E-02  8.637237866E+04  1.600290678E+02  3.324353199E+02  2.752056012E+02  2.426279891E+02  8.536145762E-01 
        10 -1.175719847E-02  1.079385502E-01 -1.899452623E-02  8.615759003E+04  1.614087321E+02  3.323085148E+02  2.749956880E+02  2.438172920E+02  8.508751048E-01 
        11 -9.920451205E-03  1.084473482E-01 -1.667649769E-02  8.608784872E+04  1.626085298E+02  3.322706268E+02  2.749330010E+02  2.447748219E+02  8.483118671E-01 
        12 -8.053093039E-03  1.089314126E-01 -1.437870322E-02  8.627290482E+04  1.632455197E+02  3.323493805E+02  2.750633053E+02  2.445044633E+02  8.443991635E-01 
        13 -6.139911673E-03  1.093816015E-01 -1.211111235E-02  8.677534790E+04  1.626429825E+02  3.326242971E+02  2.755185943E+02  2.432124567E+02  8.438468035E-01 
        14 -4.213714023E-03  1.098625599E-01 -9.853315987E-03  8.759870947E+04  1.601031733E+02  3.331032753E+02  2.763126831E+02  2.403639355E+02  8.485344872E-01 
        15 -2.267252226E-03  1.102821410E-01 -7.616721013E-03  8.863209961E+04  1.561444378E+02  3.336343994E+02  2.771948299E+02  2.369764204E+02  8.594089188E-01 
        16 -3.058463972E-04  1.106716081E-01 -5.380345181E-03  8.932572461E+04  1.498892775E+02  3.339586544E+02  2.777339182E+02  2.342964139E+02  8.855183255E-01 
        17  1.649896870E-03  1.110991589E-01 -3.144821902E-03  8.735263110E+04  1.463294787E+02  3.329530940E+02  2.760653856E+02  2.420315099E+02  9.336245293E-01 
        18  3.605378217E-03  1.114680886E-01 -8.997268064E-04  7.576664490E+04  1.763306835E+02  3.263132591E+02  2.651646481E+02  2.868761907E+02  9.406604022E-01 
        19  5.548952344E-03  1.118349081E-01  1.356589372E-03  6.999375317E+04  2.053592559E+02  3.231478014E+02  2.600446010E+02  3.028063440E+02  8.471872699E-01 
        20  7.472030685E-03  1.121892539E-01  3.633809071E-03  7.293633781E+04  2.104387932E+02  3.249566024E+02  2.629674128E+02  2.966213937E+02  7.926498381E-01 
        21  9.366594022E-03  1.125505666E-01  5.932977735E-03  7.664763177E+04  2.076785183E+02  3.271969433E+02  2.666050417E+02  2.839355259E+02  7.577375681E-01 
        22  1.122147558E-02  1.129077905E-01  8.263617067E-03  7.913368622E+04  2.073444462E+02  3.286353176E+02  2.689525490E+02  2.733667740E+02  7.207366711E-01 
        23  1.303284284E-02  1.132507638E-01  1.062953057E-02  8.070211572E+04  2.090705630E+02  3.295681783E+02  2.704807619E+02  2.685183557E+02  6.947436651E-01 
        24  1.479928419E-02  1.136234762E-01  1.303021626E-02  8.179715289E+04  2.137706479E+02  3.301362697E+02  2.714136583E+02  2.660270205E+02  6.620806355E-01 
        25  1.649617427E-02  1.139938279E-01  1.547769530E-02  8.275592670E+04  2.192953267E+02  3.305748239E+02  2.721350768E+02  2.634981074E+02  6.250961772E-01 
        26  1.811807173E-02  1.143837002E-01  1.797032872E-02  8.341897632E+04  2.249722717E+02  3.308713636E+02  2.726234455E+02  2.618710933E+02  5.904390980E-01 
        27  1.968166241E-02  1.148013513E-01  2.049621310E-02  8.350218518E+04  2.315403321E+02  3.309044733E+02  2.726778557E+02  2.619112537E+02  5.572375790E-01 
        28  2.119101764E-02  1.152299366E-01  2.305322148E-02  8.304934071E+04  2.403372903E+02  3.305607823E+02  2.721115199E+02  2.646320719E+02  5.223975971E-01 
        29  2.266338778E-02  1.156643914E-01  2.563116057E-02  8.248359064E+04  2.492874526E+02  3.301889381E+02  2.715000225E+02  2.681248896E+02  4.890522556E-01 
        30  2.408077791E-02  1.161159634E-01  2.823658064E-02  8.197946368E+04  2.572402704E+02  3.299677417E+02  2.711362722E+02  2.704467196E+02  4.569323650E-01 
        31  2.544088325E-02  1.165921105E-01  3.086849856E-02  8.141136804E+04  2.653298218E+02  3.296620655E+02  2.706343093E+02  2.727425342E+02  4.246039377E-01 
        32  2.674433127E-02  1.170738851E-01  3.352942364E-02  8.078530273E+04  2.741528301E+02  3.291947436E+02  2.698678310E+02  2.762187226E+02  3.931154576E-01 
        33  2.797950643E-02  1.175445507E-01  3.622298897E-02  8.020987595E+04  2.828310783E+02  3.287710530E+02  2.691734346E+02  2.799978653E+02  3.634811401E-01 
        34  2.916313541E-02  1.180056499E-01  3.893937175E-02  7.989247781E+04  2.897630751E+02  3.287039161E+02  2.690634245E+02  2.820639141E+02  3.364246152E-01 
        35  3.031249539E-02  1.184785399E-01  4.167042727E-02  7.997029544E+04  2.950829641E+02  3.289312272E+02  2.694354542E+02  2.823007847E+02  3.108310846E-01 
        36  3.139929926E-02  1.189405785E-01  4.442941843E-02  8.022110431E+04  3.011852171E+02  3.290638061E+02  2.696526656E+02  2.828607260E+02  2.824979537E-01 
        37  3.242013936E-02  1.193808800E-01  4.721660669E-02  8.079698054E+04  3.067409224E+02  3.293884798E+02  2.701854276E+02  2.822314765E+02  2.520849622E-01 
        38  3.340677803E-02  1.198011670E-01  5.002067675E-02  8.210369553E+04  3.096712664E+02  3.301731268E+02  2.714742833E+02  2.790972644E+02  2.254922730E-01 
        39  3.430413654E-02  1.201853153E-01  5.285529857E-02  8.384055444E+04  3.111518421E+02  3.311204872E+02  2.730345125E+02  2.743112268E+02  1.999775646E-01 
        40  3.515433510E-02  1.205874318E-01  5.570324370E-02  8.594980127E+04  3.109913635E+02  3.322597065E+02  2.749172382E+02  2.680941963E+02  1.776936231E-01 
        41  3.592907297E-02  1.209644065E-01  5.857535950E-02  8.832060938E+04  3.090843697E+02  3.335739326E+02  2.770967665E+02  2.607221537E+02  1.605710066E-01 
        42  3.664355424E-02  1.213334730E-01  6.146049591E-02  9.077672351E+04  3.058754663E+02  3.348286777E+02  2.791848178E+02  2.527881999E+02  1.489369324E-01 
        43  3.727845098E-02  1.217084379E-01  6.437276718E-02  9.304521729E+04  3.020745611E+02  3.358712559E+02  2.809254303E+02  2.453577547E+02  1.433077389E-01 
        44  3.781448665E-02  1.220744111E-01  6.730672953E-02  9.484547095E+04  2.983339520E+02  3.367141752E+02  2.823363733E+02  2.393977165E+02  1.438444015E-01 
        45  3.826762164E-02  1.224563704E-01  7.025293559E-02  9.601684991E+04  2.956308665E+02  3.372754214E+02  2.832780793E+02  2.357372328E+02  1.480850985E-01 
        46  3.856443464E-02  1.228195695E-01  7.317567491E-02  9.660081250E+04  2.936543350E+02  3.376688690E+02  2.839396667E+02  2.338430634E+02  1.551613808E-01 
        47  3.882754171E-02  1.231963568E-01  7.616928387E-02  9.675893628E+04  2.919177970E+02  3.382429864E+02  2.849076295E+02  2.318610700E+02  1.609846181E-01 
        48  3.896508106E-02  1.235573809E-01  7.913505459E-02  9.668221875E+04  2.871290512E+02  3.394610443E+02  2.869788513E+02  2.241742668E+02  1.664152220E-01 
        49  3.903512947E-02  1.239238609E-01  8.213137167E-02  9.658136438E+04  2.764060683E+02  3.417450697E+02  2.908797631E+02  2.051683048E+02  1.758535863E-01 
        50  3.900153017E-02  1.243001337E-01  8.510504302E-02  9.646995847E+04  2.581956835E+02  3.454243770E+02  2.971885234E+02  1.706075071E+02  1.849857667E-01 
        51  3.889299026E-02  1.246700891E-01  8.806950082E-02  9.613564050E+04  2.401298180E+02  3.492850587E+02  3.038555555E+02  1.234213567E+02  1.769596493E-01 
        52  3.870303970E-02  1.250405990E-01  9.105247242E-02  9.603257056E+04  2.338792696E+02  3.516879950E+02  3.080204606E+02  8.244260764E+01  4.156716340E-02 
        53  3.847530202E-02  1.253810613E-01  9.402032493E-02  9.646415323E+04  2.333133579E+02  3.527378454E+02  3.098579973E+02  4.883971612E+01 -3.736170093E-01 
        54  3.809583015E-02  1.257752167E-01  9.695318516E-02  9.682907324E+04  2.348988457E+02  3.527632866E+02  3.098968391E+02  4.124181747E+01 -1.620849431E+00 
        55  3.767199372E-02  1.261489404E-01  9.992435767E-02  9.812306763E+04  2.485178308E+02  3.524127169E+02  3.092781305E+02  4.823424375E+01 -1.979335930E+00 
        56  3.723780727E-02  1.265196365E-01  1.028569506E-01  9.970496835E+04  2.543163720E+02  3.514427571E+02  3.075794446E+02  6.877731414E+01 -1.085751134E+00 
        57  3.672955052E-02  1.269046997E-01  1.057947981E-01  1.011778186E+05  2.437252216E+02  3.497998438E+02  3.047094049E+02  1.108935823E+02 -3.241201164E-02 
        58  3.615520807E-02  1.273091289E-01  1.087154776E-01  1.035323826E+05  2.365102949E+02  3.474655857E+02  3.006587439E+02  1.501619310E+02  2.625155924E-01 
        59  3.556812424E-02  1.277144368E-01  1.116309472E-01  1.061081910E+05  2.433263447E+02  3.450034833E+02  2.964118264E+02  1.764608998E+02  2.847900935E-01 
        60  3.495651588E-02  1.281329458E-01  1.145394580E-01  1.077013696E+05  2.512150741E+02  3.438844538E+02  2.944898901E+02  1.852106929E+02  2.588910046E-01 
        61  3.433795015E-02  1.285471243E-01  1.174457346E-01  1.082125052E+05  2.597874703E+02  3.435194387E+02  2.938648171E+02  1.893572195E+02  2.191670749E-01 
        62  3.376061330E-02  1.289460490E-01  1.203607660E-01  1.081095485E+05  2.672369025E+02  3.432779932E+02  2.934517648E+02  1.933239057E+02  1.876840908E-01 
        63  3.331803132E-02  1.293309423E-01  1.232882868E-01  1.079841275E+05  2.696915447E+02  3.433023279E+02  2.934928368E+02  1.959341483E+02  1.835702176E-01 
        64  3.310586596E-02  1.296649637E-01  1.262581306E-01  1.079829244E+05  2.707152929E+02  3.430919261E+02  2.931332202E+02  1.971956837E+02  1.835786860E-01 
        65  3.306639982E-02  1.299493947E-01  1.292495641E-01  1.079822004E+05  2.709267825E+02  3.429519775E+02  2.928936241E+02  1.996521794E+02  1.925665707E-01 
        66  3.322486525E-02  1.302097713E-01  1.322380794E-01  1.079056258E+05  2.718235764E+02  3.428388524E+02  2.927004402E+02  2.013763950E+02  1.951426048E-01 
        67  3.356462385E-02  1.304573038E-01  1.352130229E-01  1.077084541E+05  2.730009151E+02  3.427866806E+02  2.926114843E+02  2.021547291E+02  1.930777530E-01 
        68  3.400410102E-02  1.306751199E-01  1.381765647E-01  1.073783207E+05  2.744441454E+02  3.427156334E+02  2.924901371E+02  2.030505829E+02  1.898149026E-01 
        69  3.451963359E-02  1.308741206E-01  1.411278790E-01  1.070614530E+05  2.759870460E+02  3.426418123E+02  2.923640547E+02  2.049918072E+02  1.896917832E-01 
        70  3.508991352E-02  1.310576265E-01  1.440660380E-01  1.067166156E+05  2.776452067E+02  3.425277629E+02  2.921694605E+02  2.074176385E+02  1.905858412E-01 
        71  3.570211579E-02  1.312503676E-01  1.470000000E-01  1.062953057E+05  2.794357605E+02  3.423325005E+02  2.918334694E+02  2.101053314E+02  1.913713776E-01 
        72 -2.843361623E-02  1.708417341E-01 -4.258217492E-02  8.208780786E+04  1.840380502E+02  3.299697180E+02  2.711385260E+02  3.446032763E+02  1.007362306E+00 
        73 -2.838826984E-02  1.709653765E-01 -3.916427879E-02  8.217474994E+04  1.836399002E+02  3.300690374E+02  2.713018324E+02  3.446571484E+02  1.008890820E+00 
        74 -2.835908450E-02  1.711140563E-01 -3.574649433E-02  8.236968872E+04  1.836067753E+02  3.301758258E+02  2.714775231E+02  3.426788607E+02  1.005652523E+00 
        75 -2.838361088E-02  1.712589164E-01 -3.232950605E-02  8.274529541E+04  1.836768050E+02  3.303220463E+02  2.717181959E+02  3.437347717E+02  1.007351637E+00 
        76 -2.841360827E-02  1.714319125E-01 -2.891476756E-02  8.320226538E+04  1.823621378E+02  3.306834416E+02  2.723129244E+02  3.412882457E+02  1.007495984E+00 
        77 -2.833774301E-02  1.716334782E-01 -2.549995819E-02  8.377637347E+04  1.810779761E+02  3.310179803E+02  2.728641871E+02  3.400667938E+02  1.009722120E+00 
        78 -2.791452343E-02  1.719215161E-01 -2.212016887E-02  8.423814795E+04  1.810853157E+02  3.311415005E+02  2.730678606E+02  3.389709206E+02  1.007975727E+00 
        79 -2.700703325E-02  1.722886754E-01 -1.884820631E-02  8.416246240E+04  1.800713377E+02  3.311544123E+02  2.730895815E+02  3.410697231E+02  1.015134256E+00 
        80 -2.544395246E-02  1.727209334E-01 -1.584518523E-02  8.319666229E+04  1.817764063E+02  3.305659666E+02  2.721199813E+02  3.436847124E+02  1.014013765E+00 
        81 -2.351536464E-02  1.732363399E-01 -1.306823492E-02  8.132546892E+04  1.847283119E+02  3.295753829E+02  2.704910681E+02  3.488410853E+02  1.013189242E+00 
        82 -2.134527601E-02  1.737374909E-01 -1.047435973E-02  7.873366290E+04  1.914978135E+02  3.279860101E+02  2.678902024E+02  3.547584221E+02  1.001219575E+00 
        83 -1.897326710E-02  1.742189522E-01 -8.035177519E-03  7.586723962E+04  1.969846714E+02  3.264690486E+02  2.654171472E+02  3.628067778E+02  9.980372540E-01 
        84 -1.652827274E-02  1.746780172E-01 -5.688541800E-03  7.359372833E+04  2.059872448E+02  3.247831898E+02  2.626840792E+02  3.702318735E+02  9.825810753E-01 
        85 -1.397929867E-02  1.751251779E-01 -3.446989688E-03  7.265202747E+04  2.091538439E+02  3.243165984E+02  2.619309602E+02  3.725865979E+02  9.766935594E-01 
        86 -1.139011487E-02  1.755573757E-01 -1.256774906E-03  7.346799316E+04  2.107502666E+02  3.247606969E+02  2.626507568E+02  3.716478667E+02  9.694797210E-01 
        87 -8.734274343E-03  1.759085237E-01  8.667805443E-04  7.811562762E+04  2.054232606E+02  3.276030540E+02  2.672721078E+02  3.597373779E+02  9.641153542E-01 
        88 -6.073383534E-03  1.762548475E-01  2.984781313E-03  8.822649359E+04  1.903618470E+02  3.334668574E+02  2.769233524E+02  3.313180392E+02  9.661901137E-01 
        89 -3.359730182E-03  1.765819110E-01  5.053045394E-03  9.762003400E+04  1.749812179E+02  3.381144230E+02  2.846923887E+02  3.064966934E+02  9.859162006E-01 
        90 -6.741955509E-04  1.768270807E-01  7.130208361E-03  9.703032635E+04  1.684263210E+02  3.376085600E+02  2.838404272E+02  3.098712010E+02  1.012885364E+00 
        91  2.027043660E-03  1.770783858E-01  9.208570588E-03  7.860067834E+04  1.964035114E+02  3.274685958E+02  2.670544486E+02  3.591183966E+02  9.936558738E-01 
        92  4.731686997E-03  1.772422585E-01  1.127155269E-02  7.377382657E+04  2.108820042E+02  3.249704553E+02  2.629872522E+02  3.729772650E+02  9.714013616E-01 
        93  7.454465044E-03  1.773874983E-01  1.334309669E-02  7.388278836E+04  2.074488071E+02  3.250554944E+02  2.631250329E+02  3.694687155E+02  9.758287114E-01 
        94  1.015989937E-02  1.775222933E-01  1.545596277E-02  7.083058706E+04  2.155536087E+02  3.232107456E+02  2.601523458E+02  3.791744155E+02  9.689751806E-01 
        95  1.284858280E-02  1.775661421E-01  1.756817794E-02  6.742379407E+04  2.273458414E+02  3.209731760E+02  2.565628896E+02  3.921040928E+02  9.569704919E-01 
        96  1.551966693E-02  1.776138061E-01  1.970369132E-02  6.443073389E+04  2.372552412E+02  3.188161638E+02  2.531303227E+02  4.014183583E+02  9.444019971E-01 
        97  1.817410325E-02  1.776258069E-01  2.186017323E-02  6.168921094E+04  2.446412985E+02  3.170237460E+02  2.502898464E+02  4.072421536E+02  9.330719039E-01 
        98  2.080993586E-02  1.775631240E-01  2.403936301E-02  5.970618616E+04  2.524765449E+02  3.155669460E+02  2.479934154E+02  4.124238291E+02  9.188194685E-01 
        99  2.341570779E-02  1.774969016E-01  2.625394818E-02  5.928621765E+04  2.579462547E+02  3.152187185E+02  2.474474564E+02  4.153612900E+02  9.067630433E-01 
       100  2.600295182E-02  1.773818036E-01  2.848806157E-02  6.104754810E+04  2.600085793E+02  3.165247211E+02  2.495124712E+02  4.114366779E+02  8.911232240E-01 
       101  2.856627515E-02  1.771883875E-01  3.074502562E-02  6.650644580E+04  2.558102407E+02  3.203747702E+02  2.556737194E+02  3.957154350E+02  8.718592525E-01 
       102  3.110662233E-02  1.769811535E-01  3.302644514E-02  7.500438940E+04  2.464084644E+02  3.260417051E+02  2.647948313E+02  3.711509905E+02  8.521247823E-01 
       103  3.362247542E-02  1.767159818E-01  3.532849163E-02  8.171343750E+04  2.428339787E+02  3.299838839E+02  2.711836176E+02  3.530133371E+02  8.281922191E-01 
       104  3.610895472E-02  1.763647845E-01  3.765120331E-02  8.299073389E+04  2.473697741E+02  3.306893153E+02  2.723307333E+02  3.502830544E+02  8.078675503E-01 
       105  3.856497337E-02  1.759966372E-01  4.000321012E-02  8.058415942E+04  2.561056103E+02  3.293468057E+02  2.701220976E+02  3.570587616E+02  7.908547847E-01 
       106  4.103059304E-02  1.755360248E-01  4.234569910E-02  7.841560332E+04  2.642245291E+02  3.280244832E+02  2.679541165E+02  3.635770403E+02  7.753833105E-01 
       107  4.340106546E-02  1.750377176E-01  4.474435622E-02  7.876766798E+04  2.678815839E+02  3.283001882E+02  2.684057066E+02  3.627405340E+02  7.612911579E-01 
       108  4.575540032E-02  1.745445103E-01  4.717695363E-02  8.217129529E+04  2.665326428E+02  3.303820338E+02  2.718259668E+02  3.523054156E+02  7.461130070E-01 
       109  4.807037784E-02  1.739953488E-01  4.963532790E-02  8.835433765E+04  2.616568136E+02  3.338161049E+02  2.775140524E+02  3.355764656E+02  7.330937441E-01 
       110  5.034733117E-02  1.734133857E-01  5.212084081E-02  9.490612549E+04  2.570694160E+02  3.373465252E+02  2.834072056E+02  3.161542091E+02  7.166127861E-01 
       111  5.258765486E-02  1.728405975E-01  5.464144749E-02  9.930889941E+04  2.570595284E+02  3.394883385E+02  2.870095863E+02  3.048751049E+02  6.984919980E-01 
       112  5.479076840E-02  1.722430532E-01  5.718902978E-02  1.021462732E+05  2.581833086E+02  3.407452297E+02  2.891376934E+02  3.002574987E+02  6.872828864E-01 
       113  5.694737683E-02  1.716020731E-01  5.976586917E-02  1.050936589E+05  2.580302148E+02  3.420135930E+02  2.912945964E+02  2.933167386E+02  6.776357847E-01 
       114  5.911848447E-02  1.709340834E-01  6.233872565E-02  1.084316179E+05  2.568153342E+02  3.434762297E+02  2.937912766E+02  2.842236522E+02  6.690710979E-01 
       115  6.119351897E-02  1.703313828E-01  6.496775561E-02  1.113019617E+05  2.551277881E+02  3.448510551E+02  2.961478081E+02  2.749165192E+02  6.633566096E-01 
       116  6.319798910E-02  1.696485115E-01  6.765543605E-02  1.135957520E+05  2.536533279E+02  3.459744530E+02  2.980794716E+02  2.686257071E+02  6.608404908E-01 
       117  6.520189851E-02  1.689621155E-01  7.034628384E-02  1.156807744E+05  2.528529987E+02  3.467841816E+02  2.994760637E+02  2.637863617E+02  6.581775751E-01 
       118  6.717992039E-02  1.682884043E-01  7.305807409E-02  1.174478481E+05  2.503895884E+02  3.476203127E+02  3.009219685E+02  2.598450031E+02  6.636093631E-01 
       119  6.910755662E-02  1.675987334E-01  7.579818779E-02  1.188224722E+05  2.499045141E+02  3.480408471E+02  3.016504400E+02  2.571839187E+02  6.629041447E-01 
       120  7.101404689E-02  1.668389198E-01  7.852135391E-02  1.197335941E+05  2.467249196E+02  3.485442095E+02  3.025235476E+02  2.538578737E+02  6.723757372E-01 
