nodenumber     x-coordinate     y-coordinate     z-coordinate         pressure velocity-magnitude      sound-speed      temperature rel-velocity-magnitude relative-velocity-angle 
         1 -2.216901913E-02  1.039879580E-01 -4.300600202E-02  8.757082312E+04  1.535133456E+02  3.330904900E+02  2.762914267E+02  2.353032146E+02  8.601590168E-01 
         2 -2.197401757E-02  1.042260031E-01 -4.002397295E-02  8.749131451E+04  1.544732586E+02  3.330114619E+02  2.761603194E+02  2.364752055E+02  8.592419082E-01 
         3 -2.150271627E-02  1.045375264E-01 -3.708169353E-02  8.737525592E+04  1.550455873E+02  3.329554977E+02  2.760675793E+02  2.370318218E+02  8.583746576E-01 
         4 -2.072290556E-02  1.049359494E-01 -3.421635317E-02  8.723746069E+04  1.557229245E+02  3.328890619E+02  2.759574261E+02  2.375223753E+02  8.567692610E-01 
         5 -1.964621854E-02  1.053757771E-01 -3.145501365E-02  8.711109839E+04  1.563893552E+02  3.328259602E+02  2.758528199E+02  2.384218960E+02  8.567652404E-01 
         6 -1.833909717E-02  1.058829391E-01 -2.880182754E-02  8.697708643E+04  1.573166499E+02  3.327377644E+02  2.757066250E+02  2.395773783E+02  8.561807051E-01 
         7 -1.686396899E-02  1.064019756E-01 -2.624136390E-02  8.679566040E+04  1.580653195E+02  3.326463165E+02  2.755551167E+02  2.404132318E+02  8.554424569E-01 
         8 -1.524276490E-02  1.069101094E-01 -2.376908005E-02  8.657328040E+04  1.591055408E+02  3.325247989E+02  2.753538361E+02  2.416530623E+02  8.546746392E-01 
         9 -1.353040875E-02  1.074492491E-01 -2.136449246E-02  8.629609705E+04  1.601555378E+02  3.323961215E+02  2.751407299E+02  2.426550980E+02  8.530581566E-01 
        10 -1.175719847E-02  1.079385502E-01 -1.899452623E-02  8.611408246E+04  1.613020886E+02  3.323035007E+02  2.749873850E+02  2.436968868E+02  8.510354897E-01 
        11 -9.920451205E-03  1.084473482E-01 -1.667649769E-02  8.606371954E+04  1.627572196E+02  3.322483822E+02  2.748962306E+02  2.449732232E+02  8.483061262E-01 
        12 -8.053093039E-03  1.089314126E-01 -1.437870322E-02  8.621199869E+04  1.635810428E+02  3.322961258E+02  2.749752554E+02  2.448466029E+02  8.438664242E-01 
        13 -6.139911673E-03  1.093816015E-01 -1.211111235E-02  8.669585327E+04  1.627098918E+02  3.325921021E+02  2.754652567E+02  2.433234072E+02  8.438293990E-01 
        14 -4.213714023E-03  1.098625599E-01 -9.853315987E-03  8.757648242E+04  1.602628183E+02  3.330766563E+02  2.762685432E+02  2.403669462E+02  8.476560824E-01 
        15 -2.267252226E-03  1.102821410E-01 -7.616721013E-03  8.865912744E+04  1.559707375E+02  3.336568871E+02  2.772320986E+02  2.367735767E+02  8.597296253E-01 
        16 -3.058463972E-04  1.106716081E-01 -5.380345181E-03  8.941090796E+04  1.495039458E+02  3.340353584E+02  2.778615608E+02  2.343603406E+02  8.880193010E-01 
        17  1.649896870E-03  1.110991589E-01 -3.144821902E-03  8.728506946E+04  1.476969795E+02  3.327560964E+02  2.757380519E+02  2.420363255E+02  9.273159392E-01 
        18  3.605378217E-03  1.114680886E-01 -8.997268064E-04  7.561538000E+04  1.781261137E+02  3.261267829E+02  2.648621554E+02  2.895846834E+02  9.414817598E-01 
        19  5.548952344E-03  1.118349081E-01  1.356589372E-03  6.998709515E+04  2.060897582E+02  3.230642519E+02  2.599116817E+02  3.033710561E+02  8.446516776E-01 
        20  7.472030685E-03  1.121892539E-01  3.633809071E-03  7.296314787E+04  2.117411688E+02  3.247335285E+02  2.626055178E+02  2.973737332E+02  7.899970212E-01 
        21  9.366594022E-03  1.125505666E-01  5.932977735E-03  7.668990314E+04  2.083088163E+02  3.270835419E+02  2.664205697E+02  2.846537831E+02  7.576017235E-01 
        22  1.122147558E-02  1.129077905E-01  8.263617067E-03  7.909258853E+04  2.074209753E+02  3.285900521E+02  2.688777814E+02  2.752958370E+02  7.274483824E-01 
        23  1.303284284E-02  1.132507638E-01  1.062953057E-02  8.059988881E+04  2.102267616E+02  3.294228045E+02  2.702411766E+02  2.697655376E+02  6.934707410E-01 
        24  1.479928419E-02  1.136234762E-01  1.303021626E-02  8.177859903E+04  2.147741356E+02  3.300557798E+02  2.712812775E+02  2.668359146E+02  6.597135607E-01 
        25  1.649617427E-02  1.139938279E-01  1.547769530E-02  8.281488904E+04  2.193698778E+02  3.306078825E+02  2.721894794E+02  2.639091923E+02  6.257762052E-01 
        26  1.811807173E-02  1.143837002E-01  1.797032872E-02  8.347756519E+04  2.249777174E+02  3.308718352E+02  2.726240096E+02  2.622298460E+02  5.916469824E-01 
        27  1.968166241E-02  1.148013513E-01  2.049621310E-02  8.349027692E+04  2.325453827E+02  3.307580068E+02  2.724367414E+02  2.631697805E+02  5.568000022E-01 
        28  2.119101764E-02  1.152299366E-01  2.305322148E-02  8.296527864E+04  2.410799160E+02  3.304884057E+02  2.719926115E+02  2.656681895E+02  5.217832993E-01 
        29  2.266338778E-02  1.156643914E-01  2.563116057E-02  8.239278217E+04  2.499367075E+02  3.301362259E+02  2.714136056E+02  2.681767521E+02  4.858981678E-01 
        30  2.408077791E-02  1.161159634E-01  2.823658064E-02  8.189963245E+04  2.585163157E+02  3.297774644E+02  2.708239214E+02  2.713420506E+02  4.538616920E-01 
        31  2.544088325E-02  1.165921105E-01  3.086849856E-02  8.134416602E+04  2.667323062E+02  3.294193373E+02  2.702362297E+02  2.749065185E+02  4.252977115E-01 
        32  2.674433127E-02  1.170738851E-01  3.352942364E-02  8.072646472E+04  2.745019193E+02  3.291323271E+02  2.697655003E+02  2.780893641E+02  3.979482488E-01 
        33  2.797950643E-02  1.175445507E-01  3.622298897E-02  8.016267581E+04  2.822317222E+02  3.289094176E+02  2.693998517E+02  2.806571932E+02  3.687426464E-01 
        34  2.916313541E-02  1.180056499E-01  3.893937175E-02  7.987573849E+04  2.900407173E+02  3.287452812E+02  2.691307897E+02  2.826043422E+02  3.367875249E-01 
        35  3.031249539E-02  1.184785399E-01  4.167042727E-02  7.998898615E+04  2.967050970E+02  3.287660553E+02  2.691649153E+02  2.834709458E+02  3.067136973E-01 
        36  3.139929926E-02  1.189405785E-01  4.442941843E-02  8.024493198E+04  3.021157523E+02  3.289874916E+02  2.695274404E+02  2.833554435E+02  2.793872312E-01 
        37  3.242013936E-02  1.193808800E-01  4.721660669E-02  8.079351786E+04  3.072154352E+02  3.293157630E+02  2.700654147E+02  2.826932222E+02  2.512910835E-01 
        38  3.340677803E-02  1.198011670E-01  5.002067675E-02  8.209919302E+04  3.098556080E+02  3.300517192E+02  2.712744768E+02  2.792278615E+02  2.250347917E-01 
        39  3.430413654E-02  1.201853153E-01  5.285529857E-02  8.383597778E+04  3.107622242E+02  3.310655813E+02  2.729442482E+02  2.739662418E+02  2.007698892E-01 
        40  3.515433510E-02  1.205874318E-01  5.570324370E-02  8.594988477E+04  3.104646530E+02  3.322341137E+02  2.748748760E+02  2.675266571E+02  1.784348562E-01 
        41  3.592907297E-02  1.209644065E-01  5.857535950E-02  8.829771753E+04  3.088488226E+02  3.334775591E+02  2.769364133E+02  2.601834273E+02  1.598754413E-01 
        42  3.664355424E-02  1.213334730E-01  6.146049591E-02  9.071788208E+04  3.058379688E+02  3.346802502E+02  2.789373846E+02  2.523634591E+02  1.475277559E-01 
        43  3.727845098E-02  1.217084379E-01  6.437276718E-02  9.296995898E+04  3.020295382E+02  3.357547741E+02  2.807307434E+02  2.450737286E+02  1.424136334E-01 
        44  3.781448665E-02  1.220744111E-01  6.730672953E-02  9.478199780E+04  2.983497152E+02  3.366592016E+02  2.822445107E+02  2.393641834E+02  1.435843986E-01 
        45  3.826762164E-02  1.224563704E-01  7.025293559E-02  9.599295630E+04  2.956102850E+02  3.373156114E+02  2.833457396E+02  2.357087150E+02  1.480224393E-01 
        46  3.856443464E-02  1.228195695E-01  7.317567491E-02  9.664402344E+04  2.937238770E+02  3.377855682E+02  2.841362610E+02  2.336176682E+02  1.537835039E-01 
        47  3.882754171E-02  1.231963568E-01  7.616928387E-02  9.688309970E+04  2.918945014E+02  3.384656433E+02  2.852829396E+02  2.314961626E+02  1.596053278E-01 
        48  3.896508106E-02  1.235573809E-01  7.913505459E-02  9.682852344E+04  2.880131760E+02  3.395522003E+02  2.871314545E+02  2.250128098E+02  1.635702178E-01 
        49  3.903512947E-02  1.239238609E-01  8.213137167E-02  9.665339099E+04  2.776161926E+02  3.417188737E+02  2.908347602E+02  2.071512730E+02  1.753279669E-01 
        50  3.900153017E-02  1.243001337E-01  8.510504302E-02  9.629623959E+04  2.609806428E+02  3.450338336E+02  2.965146407E+02  1.755171460E+02  1.818188127E-01 
        51  3.889299026E-02  1.246700891E-01  8.806950082E-02  9.596062927E+04  2.435058188E+02  3.486680315E+02  3.027865911E+02  1.298202407E+02  1.657781182E-01 
        52  3.870303970E-02  1.250405990E-01  9.105247242E-02  9.587931006E+04  2.371916018E+02  3.510047584E+02  3.068310103E+02  8.874155641E+01  2.370172733E-02 
        53  3.847530202E-02  1.253810613E-01  9.402032493E-02  9.635332343E+04  2.384870173E+02  3.521449516E+02  3.088218428E+02  5.436286093E+01 -5.138999657E-01 
        54  3.809583015E-02  1.257752167E-01  9.695318516E-02  9.760063770E+04  2.382012978E+02  3.530634232E+02  3.104258308E+02  4.045292425E+01 -1.623617068E+00 
        55  3.767199372E-02  1.261489404E-01  9.992435767E-02  9.847806055E+04  2.462469850E+02  3.525114565E+02  3.094533176E+02  4.688102198E+01 -1.931263622E+00 
        56  3.723780727E-02  1.265196365E-01  1.028569506E-01  9.976005798E+04  2.477572702E+02  3.510253500E+02  3.068490291E+02  6.759664528E+01 -1.067118710E+00 
        57  3.672955052E-02  1.269046997E-01  1.057947981E-01  1.019079487E+05  2.343687458E+02  3.496155410E+02  3.043890848E+02  1.061354692E+02  6.807317096E-02 
        58  3.615520807E-02  1.273091289E-01  1.087154776E-01  1.049497507E+05  2.308263555E+02  3.475125723E+02  3.007423344E+02  1.474367528E+02  2.977750544E-01 
        59  3.556812424E-02  1.277144368E-01  1.116309472E-01  1.073531563E+05  2.413535469E+02  3.454686174E+02  2.972135499E+02  1.749443333E+02  2.904467962E-01 
        60  3.495651588E-02  1.281329458E-01  1.145394580E-01  1.080974600E+05  2.560851827E+02  3.441476192E+02  2.949433475E+02  1.876887169E+02  2.352543864E-01 
        61  3.433795015E-02  1.285471243E-01  1.174457346E-01  1.079821013E+05  2.660220063E+02  3.433497405E+02  2.935749164E+02  1.945608745E+02  1.981272742E-01 
        62  3.376061330E-02  1.289460490E-01  1.203607660E-01  1.079810558E+05  2.687522724E+02  3.430905209E+02  2.931308920E+02  1.963515987E+02  1.890576677E-01 
        63  3.331803132E-02  1.293309423E-01  1.232882868E-01  1.081658063E+05  2.677328401E+02  3.431613538E+02  2.932515442E+02  1.948988534E+02  1.919730368E-01 
        64  3.310586596E-02  1.296649637E-01  1.262581306E-01  1.082318524E+05  2.685934634E+02  3.430564153E+02  2.930720556E+02  1.968192658E+02  1.950752557E-01 
        65  3.306639982E-02  1.299493947E-01  1.292495641E-01  1.081263850E+05  2.707561448E+02  3.429011378E+02  2.928069203E+02  1.997180031E+02  1.937839290E-01 
        66  3.322486525E-02  1.302097713E-01  1.322380794E-01  1.078659774E+05  2.726397769E+02  3.428301290E+02  2.926855274E+02  2.012727739E+02  1.898469645E-01 
        67  3.356462385E-02  1.304573038E-01  1.352130229E-01  1.075613579E+05  2.741361137E+02  3.427959068E+02  2.926270846E+02  2.028713236E+02  1.888490400E-01 
        68  3.400410102E-02  1.306751199E-01  1.381765647E-01  1.072831173E+05  2.757686098E+02  3.427110252E+02  2.924821529E+02  2.048603158E+02  1.882616661E-01 
        69  3.451963359E-02  1.308741206E-01  1.411278790E-01  1.070044514E+05  2.772459054E+02  3.425948958E+02  2.922839298E+02  2.068866830E+02  1.887965149E-01 
        70  3.508991352E-02  1.310576265E-01  1.440660380E-01  1.066734786E+05  2.785940793E+02  3.424614248E+02  2.920562096E+02  2.089261715E+02  1.901928193E-01 
        71  3.570211579E-02  1.312503676E-01  1.470000000E-01  1.062980049E+05  2.800082169E+02  3.423048172E+02  2.917875023E+02  2.111369572E+02  1.915831957E-01 
        72 -2.843361623E-02  1.708417341E-01 -4.258217492E-02  8.203179224E+04  1.839127750E+02  3.299470453E+02  2.711013441E+02  3.440826092E+02  1.006908044E+00 
        73 -2.838826984E-02  1.709653765E-01 -3.916427879E-02  8.214544281E+04  1.838715363E+02  3.300290394E+02  2.712362921E+02  3.444510789E+02  1.007803790E+00 
        74 -2.835908450E-02  1.711140563E-01 -3.574649433E-02  8.239046991E+04  1.838111398E+02  3.301505067E+02  2.714359879E+02  3.436540823E+02  1.006757759E+00 
        75 -2.838361088E-02  1.712589164E-01 -3.232950605E-02  8.287400269E+04  1.833179498E+02  3.304254045E+02  2.718882980E+02  3.431110010E+02  1.007441446E+00 
        76 -2.841360827E-02  1.714319125E-01 -2.891476756E-02  8.339304431E+04  1.821045108E+02  3.307521238E+02  2.724259892E+02  3.415944943E+02  1.008801758E+00 
        77 -2.833774301E-02  1.716334782E-01 -2.549995819E-02  8.383525400E+04  1.809587077E+02  3.310614750E+02  2.729357386E+02  3.396640025E+02  1.009367229E+00 
        78 -2.791452343E-02  1.719215161E-01 -2.212016887E-02  8.425361377E+04  1.806113033E+02  3.311964645E+02  2.731586390E+02  3.399546719E+02  1.011107340E+00 
        79 -2.700703325E-02  1.722886754E-01 -1.884820631E-02  8.433198779E+04  1.803150849E+02  3.311982384E+02  2.731616182E+02  3.402459469E+02  1.012653496E+00 
        80 -2.544395246E-02  1.727209334E-01 -1.584518523E-02  8.334810620E+04  1.812420298E+02  3.306664317E+02  2.722850440E+02  3.431617026E+02  1.014519026E+00 
        81 -2.351536464E-02  1.732363399E-01 -1.306823492E-02  8.135333287E+04  1.851691146E+02  3.295507761E+02  2.704508724E+02  3.488873863E+02  1.011467960E+00 
        82 -2.134527601E-02  1.737374909E-01 -1.047435973E-02  7.865671684E+04  1.910179430E+02  3.279384439E+02  2.678123339E+02  3.550617261E+02  1.003293579E+00 
        83 -1.897326710E-02  1.742189522E-01 -8.035177519E-03  7.565899899E+04  1.987387604E+02  3.261930894E+02  2.649698709E+02  3.639494376E+02  9.944279855E-01 
        84 -1.652827274E-02  1.746780172E-01 -5.688541800E-03  7.362218719E+04  2.054865606E+02  3.248813381E+02  2.628417978E+02  3.711470747E+02  9.865147155E-01 
        85 -1.397929867E-02  1.751251779E-01 -3.446989688E-03  7.272461084E+04  2.089485631E+02  3.244420037E+02  2.621318407E+02  3.724463506E+02  9.770326577E-01 
        86 -1.139011487E-02  1.755573757E-01 -1.256774906E-03  7.349916956E+04  2.104744401E+02  3.248365092E+02  2.627707095E+02  3.722984862E+02  9.713460878E-01 
        87 -8.734274343E-03  1.759085237E-01  8.667805443E-04  7.841109906E+04  2.042283847E+02  3.278328977E+02  2.676472354E+02  3.577725730E+02  9.644714016E-01 
        88 -6.073383534E-03  1.762548475E-01  2.984781313E-03  8.824683887E+04  1.906358634E+02  3.333111455E+02  2.766673855E+02  3.318593180E+02  9.665245148E-01 
        89 -3.359730182E-03  1.765819110E-01  5.053045394E-03  9.824190460E+04  1.734643477E+02  3.385457892E+02  2.854205213E+02  3.056095023E+02  9.897005702E-01 
        90 -6.741955509E-04  1.768270807E-01  7.130208361E-03  9.680600956E+04  1.688545415E+02  3.375768827E+02  2.837868198E+02  3.079855279E+02  1.009341049E+00 
        91  2.027043660E-03  1.770783858E-01  9.208570588E-03  7.908995155E+04  1.897349591E+02  3.283399278E+02  2.684728855E+02  3.557327493E+02  1.009518377E+00 
        92  4.731686997E-03  1.772422585E-01  1.127155269E-02  7.339167346E+04  2.129532016E+02  3.248997066E+02  2.628732546E+02  3.760255653E+02  9.704136152E-01 
        93  7.454465044E-03  1.773874983E-01  1.334309669E-02  7.379819482E+04  2.115090735E+02  3.248975607E+02  2.628710683E+02  3.765221463E+02  9.763433491E-01 
        94  1.015989937E-02  1.775222933E-01  1.545596277E-02  7.097053156E+04  2.191274351E+02  3.230385277E+02  2.598763751E+02  3.832127578E+02  9.648741189E-01 
        95  1.284858280E-02  1.775661421E-01  1.756817794E-02  6.745442603E+04  2.278331831E+02  3.208823149E+02  2.564184672E+02  3.910867500E+02  9.526672070E-01 
        96  1.551966693E-02  1.776138061E-01  1.970369132E-02  6.432736676E+04  2.373910491E+02  3.186591580E+02  2.528799582E+02  4.009417138E+02  9.424948767E-01 
        97  1.817410325E-02  1.776258069E-01  2.186017323E-02  6.171458081E+04  2.458152337E+02  3.168448243E+02  2.500057659E+02  4.088972950E+02  9.322039234E-01 
        98  2.080993586E-02  1.775631240E-01  2.403936301E-02  5.984119629E+04  2.536888585E+02  3.154980774E+02  2.478845048E+02  4.147115192E+02  9.195463676E-01 
        99  2.341570779E-02  1.774969016E-01  2.625394818E-02  5.926524622E+04  2.588707004E+02  3.151795540E+02  2.473845391E+02  4.161057682E+02  9.056140315E-01 
       100  2.600295182E-02  1.773818036E-01  2.848806157E-02  6.105634570E+04  2.604758530E+02  3.165178738E+02  2.495068722E+02  4.114656782E+02  8.898680881E-01 
       101  2.856627515E-02  1.771883875E-01  3.074502562E-02  6.658821411E+04  2.566198082E+02  3.202682524E+02  2.555066319E+02  3.966547050E+02  8.712992333E-01 
       102  3.110662233E-02  1.769811535E-01  3.302644514E-02  7.501046729E+04  2.473758764E+02  3.259730997E+02  2.646873274E+02  3.715599174E+02  8.499079905E-01 
       103  3.362247542E-02  1.767159818E-01  3.532849163E-02  8.185870483E+04  2.427827258E+02  3.302152109E+02  2.715646753E+02  3.517346201E+02  8.262196630E-01 
       104  3.610895472E-02  1.763647845E-01  3.765120331E-02  8.324892090E+04  2.475703108E+02  3.307098160E+02  2.723643823E+02  3.491225886E+02  8.052833229E-01 
       105  3.856497337E-02  1.759966372E-01  4.000321012E-02  8.068578717E+04  2.559561636E+02  3.292317986E+02  2.699327160E+02  3.567589279E+02  7.904824400E-01 
       106  4.103059304E-02  1.755360248E-01  4.234569910E-02  7.834689171E+04  2.631338015E+02  3.281168855E+02  2.681041039E+02  3.622552399E+02  7.762507255E-01 
       107  4.340106546E-02  1.750377176E-01  4.474435622E-02  7.864752962E+04  2.663874136E+02  3.285928952E+02  2.688849244E+02  3.597379439E+02  7.607125095E-01 
       108  4.575540032E-02  1.745445103E-01  4.717695363E-02  8.216421875E+04  2.654913347E+02  3.307456703E+02  2.724249108E+02  3.502734494E+02  7.462482499E-01 
       109  4.807037784E-02  1.739953488E-01  4.963532790E-02  8.843693970E+04  2.614714518E+02  3.339769344E+02  2.777778139E+02  3.347721224E+02  7.323226370E-01 
       110  5.034733117E-02  1.734133857E-01  5.212084081E-02  9.495127295E+04  2.580031834E+02  3.371191883E+02  2.830235367E+02  3.192693138E+02  7.179646790E-01 
       111  5.258765486E-02  1.728405975E-01  5.464144749E-02  9.938556299E+04  2.577646999E+02  3.392407513E+02  2.865917339E+02  3.078208008E+02  7.004224844E-01 
       112  5.479076840E-02  1.722430532E-01  5.718902978E-02  1.020872998E+05  2.582605543E+02  3.406187601E+02  2.889233551E+02  2.997184019E+02  6.862306241E-01 
       113  5.694737683E-02  1.716020731E-01  5.976586917E-02  1.048971965E+05  2.569722762E+02  3.420619667E+02  2.913772199E+02  2.915639524E+02  6.791214673E-01 
       114  5.911848447E-02  1.709340834E-01  6.233872565E-02  1.082175620E+05  2.554091977E+02  3.436177707E+02  2.940326169E+02  2.826947270E+02  6.722006710E-01 
       115  6.119351897E-02  1.703313828E-01  6.496775561E-02  1.110735964E+05  2.542458320E+02  3.448408260E+02  2.961297188E+02  2.753473759E+02  6.671185419E-01 
       116  6.319798910E-02  1.696485115E-01  6.765543605E-02  1.133703341E+05  2.526679649E+02  3.458569016E+02  2.978768868E+02  2.696714730E+02  6.659017075E-01 
       117  6.520189851E-02  1.689621155E-01  7.034628384E-02  1.155333906E+05  2.523409309E+02  3.466930971E+02  2.993188848E+02  2.642889309E+02  6.607506014E-01 
       118  6.717992039E-02  1.682884043E-01  7.305807409E-02  1.172150181E+05  2.508963318E+02  3.474782047E+02  3.006757689E+02  2.595088911E+02  6.612629816E-01 
       119  6.910755662E-02  1.675987334E-01  7.579818779E-02  1.186003387E+05  2.499139571E+02  3.478884230E+02  3.013859470E+02  2.562584550E+02  6.620367337E-01 
       120  7.101404689E-02  1.668389198E-01  7.852135391E-02  1.196481173E+05  2.464765512E+02  3.483818059E+02  3.022417533E+02  2.544668345E+02  6.739381156E-01 
