nodenumber     x-coordinate     y-coordinate     z-coordinate         pressure velocity-magnitude      sound-speed      temperature rel-velocity-magnitude relative-velocity-angle 
         1 -2.216901913E-02  1.039879580E-01 -4.300600202E-02  8.755064238E+04  1.539397196E+02  3.330441201E+02  2.762144474E+02  2.357946944E+02  8.595575991E-01 
         2 -2.197401757E-02  1.042260031E-01 -4.002397295E-02  8.745448593E+04  1.548248050E+02  3.329666587E+02  2.760859990E+02  2.366364952E+02  8.578638267E-01 
         3 -2.150271627E-02  1.045375264E-01 -3.708169353E-02  8.735052911E+04  1.548866605E+02  3.329620376E+02  2.760783267E+02  2.368758838E+02  8.586187414E-01 
         4 -2.072290556E-02  1.049359494E-01 -3.421635317E-02  8.724009229E+04  1.553330302E+02  3.329256444E+02  2.760180602E+02  2.373550861E+02  8.583904533E-01 
         5 -1.964621854E-02  1.053757771E-01 -3.145501365E-02  8.710931616E+04  1.563031440E+02  3.328287659E+02  2.758575554E+02  2.385512109E+02  8.576850574E-01 
         6 -1.833909717E-02  1.058829391E-01 -2.880182754E-02  8.696473022E+04  1.572018633E+02  3.327384977E+02  2.757078600E+02  2.392633204E+02  8.557222690E-01 
         7 -1.686396899E-02  1.064019756E-01 -2.624136390E-02  8.677584497E+04  1.582585397E+02  3.326224842E+02  2.755156050E+02  2.406517382E+02  8.554093130E-01 
         8 -1.524276490E-02  1.069101094E-01 -2.376908005E-02  8.657841443E+04  1.589213889E+02  3.325400019E+02  2.753789806E+02  2.414730906E+02  8.550490160E-01 
         9 -1.353040875E-02  1.074492491E-01 -2.136449246E-02  8.637639063E+04  1.601167667E+02  3.324278827E+02  2.751933036E+02  2.426007435E+02  8.530379413E-01 
        10 -1.175719847E-02  1.079385502E-01 -1.899452623E-02  8.616684027E+04  1.614219294E+02  3.323139975E+02  2.750047739E+02  2.438825831E+02  8.510570843E-01 
        11 -9.920451205E-03  1.084473482E-01 -1.667649769E-02  8.608904486E+04  1.625967922E+02  3.322660127E+02  2.749253423E+02  2.447422476E+02  8.482548189E-01 
        12 -8.053093039E-03  1.089314126E-01 -1.437870322E-02  8.628285489E+04  1.632719157E+02  3.323557996E+02  2.750739545E+02  2.444804770E+02  8.441390311E-01 
        13 -6.139911673E-03  1.093816015E-01 -1.211111235E-02  8.675224121E+04  1.625440159E+02  3.326205454E+02  2.755123701E+02  2.432307601E+02  8.444933984E-01 
        14 -4.213714023E-03  1.098625599E-01 -9.853315987E-03  8.758555225E+04  1.600593176E+02  3.331040821E+02  2.763140793E+02  2.402379408E+02  8.483218476E-01 
        15 -2.267252226E-03  1.102821410E-01 -7.616721013E-03  8.859174658E+04  1.562965899E+02  3.336009541E+02  2.771392365E+02  2.370339890E+02  8.587540574E-01 
        16 -3.058463972E-04  1.106716081E-01 -5.380345181E-03  8.931305566E+04  1.500022578E+02  3.339565325E+02  2.777304525E+02  2.341392093E+02  8.843366317E-01 
        17  1.649896870E-03  1.110991589E-01 -3.144821902E-03  8.747921143E+04  1.458699447E+02  3.330505462E+02  2.762269878E+02  2.420028837E+02  9.365306012E-01 
        18  3.605378217E-03  1.114680886E-01 -8.997268064E-04  7.563263440E+04  1.777128694E+02  3.261268201E+02  2.648619561E+02  2.879855399E+02  9.369017314E-01 
        19  5.548952344E-03  1.118349081E-01  1.356589372E-03  6.990563422E+04  2.060013385E+02  3.230271704E+02  2.598506966E+02  3.032510548E+02  8.454352138E-01 
        20  7.472030685E-03  1.121892539E-01  3.633809071E-03  7.288024316E+04  2.091128476E+02  3.250375027E+02  2.630980505E+02  2.945130073E+02  7.913099963E-01 
        21  9.366594022E-03  1.125505666E-01  5.932977735E-03  7.661611102E+04  2.072871939E+02  3.272138722E+02  2.666326632E+02  2.839371300E+02  7.595916954E-01 
        22  1.122147558E-02  1.129077905E-01  8.263617067E-03  7.909225896E+04  2.073279763E+02  3.286233078E+02  2.689327864E+02  2.734302291E+02  7.210192580E-01 
        23  1.303284284E-02  1.132507638E-01  1.062953057E-02  8.065710104E+04  2.091373182E+02  3.295386029E+02  2.704322507E+02  2.683008950E+02  6.937065837E-01 
        24  1.479928419E-02  1.136234762E-01  1.303021626E-02  8.177593231E+04  2.137183875E+02  3.301274910E+02  2.713993301E+02  2.659443190E+02  6.620658920E-01 
        25  1.649617427E-02  1.139938279E-01  1.547769530E-02  8.275510254E+04  2.192340286E+02  3.305788784E+02  2.721417670E+02  2.635207517E+02  6.254901714E-01 
        26  1.811807173E-02  1.143837002E-01  1.797032872E-02  8.342476843E+04  2.250092249E+02  3.308696656E+02  2.726206393E+02  2.619476991E+02  5.905344216E-01 
        27  1.968166241E-02  1.148013513E-01  2.049621310E-02  8.351016492E+04  2.315617054E+02  3.309091735E+02  2.726856081E+02  2.619660404E+02  5.572535349E-01 
        28  2.119101764E-02  1.152299366E-01  2.305322148E-02  8.306052954E+04  2.402003000E+02  3.305832932E+02  2.721486369E+02  2.644480318E+02  5.224398598E-01 
        29  2.266338778E-02  1.156643914E-01  2.563116057E-02  8.249377570E+04  2.493040240E+02  3.301806016E+02  2.714863280E+02  2.680940764E+02  4.889585506E-01 
        30  2.408077791E-02  1.161159634E-01  2.823658064E-02  8.197686676E+04  2.572944496E+02  3.299484699E+02  2.711046011E+02  2.705809398E+02  4.571757093E-01 
        31  2.544088325E-02  1.165921105E-01  3.086849856E-02  8.139507275E+04  2.652130938E+02  3.296713028E+02  2.706494312E+02  2.727425637E+02  4.251693129E-01 
        32  2.674433127E-02  1.170738851E-01  3.352942364E-02  8.077305334E+04  2.739410372E+02  3.292285213E+02  2.699231877E+02  2.760080447E+02  3.933849107E-01 
        33  2.797950643E-02  1.175445507E-01  3.622298897E-02  8.021473544E+04  2.828002614E+02  3.287843999E+02  2.691953566E+02  2.797975558E+02  3.628826325E-01 
        34  2.916313541E-02  1.180056499E-01  3.893937175E-02  7.990207622E+04  2.899780568E+02  3.286732157E+02  2.690133277E+02  2.820531734E+02  3.352889456E-01 
        35  3.031249539E-02  1.184785399E-01  4.167042727E-02  7.997161514E+04  2.951839472E+02  3.289142394E+02  2.694076691E+02  2.822602808E+02  3.101601760E-01 
        36  3.139929926E-02  1.189405785E-01  4.442941843E-02  8.022037842E+04  3.010892137E+02  3.290776697E+02  2.696752577E+02  2.827059556E+02  2.823932962E-01 
        37  3.242013936E-02  1.193808800E-01  4.721660669E-02  8.079703931E+04  3.066424578E+02  3.293982943E+02  2.702014560E+02  2.820836045E+02  2.520340015E-01 
        38  3.340677803E-02  1.198011670E-01  5.002067675E-02  8.210933850E+04  3.095777051E+02  3.301899946E+02  2.715020694E+02  2.789426627E+02  2.254007509E-01 
        39  3.430413654E-02  1.201853153E-01  5.285529857E-02  8.384821484E+04  3.110922451E+02  3.311432018E+02  2.730720501E+02  2.742006979E+02  1.998647368E-01 
        40  3.515433510E-02  1.205874318E-01  5.570324370E-02  8.596015576E+04  3.110344048E+02  3.322695255E+02  2.749334068E+02  2.680811844E+02  1.774018714E-01 
        41  3.592907297E-02  1.209644065E-01  5.857535950E-02  8.832851514E+04  3.091706471E+02  3.335738592E+02  2.770966182E+02  2.607825561E+02  1.603272040E-01 
        42  3.664355424E-02  1.213334730E-01  6.146049591E-02  9.077807947E+04  3.059115567E+02  3.348343740E+02  2.791943479E+02  2.528353500E+02  1.489099117E-01 
        43  3.727845098E-02  1.217084379E-01  6.437276718E-02  9.304348145E+04  3.020779791E+02  3.358819618E+02  2.809433308E+02  2.453928595E+02  1.434233231E-01 
        44  3.781448665E-02  1.220744111E-01  6.730672953E-02  9.484096997E+04  2.983367643E+02  3.367222862E+02  2.823499813E+02  2.394198294E+02  1.439184253E-01 
        45  3.826762164E-02  1.224563704E-01  7.025293559E-02  9.600736505E+04  2.956617239E+02  3.372723379E+02  2.832728179E+02  2.357509745E+02  1.479642588E-01 
        46  3.856443464E-02  1.228195695E-01  7.317567491E-02  9.658204297E+04  2.936701050E+02  3.376590881E+02  2.839231415E+02  2.338418198E+02  1.550747380E-01 
        47  3.882754171E-02  1.231963568E-01  7.616928387E-02  9.673995389E+04  2.919456198E+02  3.382192987E+02  2.848676664E+02  2.319169874E+02  1.610431882E-01 
        48  3.896508106E-02  1.235573809E-01  7.913505459E-02  9.667947461E+04  2.870958328E+02  3.394429321E+02  2.869484253E+02  2.241808281E+02  1.666803211E-01 
        49  3.903512947E-02  1.239238609E-01  8.213137167E-02  9.658455127E+04  2.762193215E+02  3.417544651E+02  2.908957250E+02  2.050096345E+02  1.766666665E-01 
        50  3.900153017E-02  1.243001337E-01  8.510504302E-02  9.646869107E+04  2.580944198E+02  3.454234920E+02  2.971869291E+02  1.703316646E+02  1.843365086E-01 
        51  3.889299026E-02  1.246700891E-01  8.806950082E-02  9.613955499E+04  2.399724531E+02  3.493068595E+02  3.038932576E+02  1.229107974E+02  1.762211507E-01 
        52  3.870303970E-02  1.250405990E-01  9.105247242E-02  9.604136816E+04  2.336942430E+02  3.517166977E+02  3.080704312E+02  8.171661854E+01  4.189038955E-02 
        53  3.847530202E-02  1.253810613E-01  9.402032493E-02  9.653386115E+04  2.331941130E+02  3.527829062E+02  3.099368922E+02  4.838855529E+01 -3.722952325E-01 
        54  3.809583015E-02  1.257752167E-01  9.695318516E-02  9.681336914E+04  2.341527901E+02  3.527960587E+02  3.099541664E+02  4.112357426E+01 -1.638526082E+00 
        55  3.767199372E-02  1.261489404E-01  9.992435767E-02  9.808547900E+04  2.482768679E+02  3.524094028E+02  3.092722597E+02  4.827716064E+01 -1.995031577E+00 
        56  3.723780727E-02  1.265196365E-01  1.028569506E-01  9.972225894E+04  2.545998998E+02  3.515142485E+02  3.077044336E+02  6.838089104E+01 -1.095001337E+00 
        57  3.672955052E-02  1.269046997E-01  1.057947981E-01  1.011689695E+05  2.443081155E+02  3.498670616E+02  3.048264155E+02  1.109135776E+02 -4.309684434E-02 
        58  3.615520807E-02  1.273091289E-01  1.087154776E-01  1.034527271E+05  2.368361039E+02  3.475218039E+02  3.007559719E+02  1.502589703E+02  2.599413097E-01 
        59  3.556812424E-02  1.277144368E-01  1.116309472E-01  1.059816879E+05  2.433106728E+02  3.450019562E+02  2.964094822E+02  1.769326462E+02  2.866949786E-01 
        60  3.495651588E-02  1.281329458E-01  1.145394580E-01  1.076065774E+05  2.508053460E+02  3.438622680E+02  2.944520860E+02  1.856866274E+02  2.631415571E-01 
        61  3.433795015E-02  1.285471243E-01  1.174457346E-01  1.081743770E+05  2.587850146E+02  3.435486736E+02  2.939146528E+02  1.895571506E+02  2.261998171E-01 
        62  3.376061330E-02  1.289460490E-01  1.203607660E-01  1.080997545E+05  2.665563750E+02  3.433214316E+02  2.935260394E+02  1.929531386E+02  1.905742870E-01 
        63  3.331803132E-02  1.293309423E-01  1.232882868E-01  1.079812114E+05  2.695399947E+02  3.433380915E+02  2.935539306E+02  1.959723440E+02  1.846065804E-01 
        64  3.310586596E-02  1.296649637E-01  1.262581306E-01  1.079785291E+05  2.709179206E+02  3.431106572E+02  2.931652255E+02  1.973466614E+02  1.828814822E-01 
        65  3.306639982E-02  1.299493947E-01  1.292495641E-01  1.079731262E+05  2.710693573E+02  3.429600099E+02  2.929074404E+02  1.996246853E+02  1.916232305E-01 
        66  3.322486525E-02  1.302097713E-01  1.322380794E-01  1.078895783E+05  2.718870353E+02  3.428333790E+02  2.926910974E+02  2.013895466E+02  1.948089255E-01 
        67  3.356462385E-02  1.304573038E-01  1.352130229E-01  1.076705286E+05  2.729811474E+02  3.427673221E+02  2.925783957E+02  2.021980985E+02  1.933489153E-01 
        68  3.400410102E-02  1.306751199E-01  1.381765647E-01  1.073441265E+05  2.743898425E+02  3.426958928E+02  2.924564734E+02  2.029790046E+02  1.898805806E-01 
        69  3.451963359E-02  1.308741206E-01  1.411278790E-01  1.070341150E+05  2.759077103E+02  3.426238537E+02  2.923334239E+02  2.047771630E+02  1.894070280E-01 
        70  3.508991352E-02  1.310576265E-01  1.440660380E-01  1.066923494E+05  2.775630059E+02  3.425179267E+02  2.921526768E+02  2.072099149E+02  1.903469244E-01 
        71  3.570211579E-02  1.312503676E-01  1.470000000E-01  1.062962539E+05  2.793555298E+02  3.423327980E+02  2.918339653E+02  2.099438343E+02  1.912828702E-01 
        72 -2.843361623E-02  1.708417341E-01 -4.258217492E-02  8.208728833E+04  1.839613876E+02  3.299793005E+02  2.711542244E+02  3.445260820E+02  1.007487424E+00 
        73 -2.838826984E-02  1.709653765E-01 -3.916427879E-02  8.216968353E+04  1.836326017E+02  3.300702002E+02  2.713037546E+02  3.446253686E+02  1.008852844E+00 
        74 -2.835908450E-02  1.711140563E-01 -3.574649433E-02  8.237197455E+04  1.836333390E+02  3.301809280E+02  2.714858725E+02  3.426495202E+02  1.005474698E+00 
        75 -2.838361088E-02  1.712589164E-01 -3.232950605E-02  8.275745361E+04  1.837520294E+02  3.303257504E+02  2.717243366E+02  3.436897154E+02  1.007042345E+00 
        76 -2.841360827E-02  1.714319125E-01 -2.891476756E-02  8.322173364E+04  1.823920155E+02  3.306893539E+02  2.723227191E+02  3.413727412E+02  1.007559743E+00 
        77 -2.833774301E-02  1.716334782E-01 -2.549995819E-02  8.379011731E+04  1.811386546E+02  3.310212309E+02  2.728696047E+02  3.399895425E+02  1.009448413E+00 
        78 -2.791452343E-02  1.719215161E-01 -2.212016887E-02  8.423128613E+04  1.811627655E+02  3.311282291E+02  2.730460377E+02  3.391002026E+02  1.007917739E+00 
        79 -2.700703325E-02  1.722886754E-01 -1.884820631E-02  8.416728613E+04  1.802172074E+02  3.311391134E+02  2.730643482E+02  3.409749727E+02  1.014504191E+00 
        80 -2.544395246E-02  1.727209334E-01 -1.584518523E-02  8.325559967E+04  1.815428926E+02  3.306201208E+02  2.722088532E+02  3.438245647E+02  1.015063760E+00 
        81 -2.351536464E-02  1.732363399E-01 -1.306823492E-02  8.130413559E+04  1.851935726E+02  3.295079813E+02  2.703806441E+02  3.489669382E+02  1.011833849E+00 
        82 -2.134527601E-02  1.737374909E-01 -1.047435973E-02  7.876404477E+04  1.906039222E+02  3.281165590E+02  2.681035829E+02  3.544850489E+02  1.003624073E+00 
        83 -1.897326710E-02  1.742189522E-01 -8.035177519E-03  7.588770975E+04  1.975967727E+02  3.264050343E+02  2.653128542E+02  3.630308442E+02  9.964469592E-01 
        84 -1.652827274E-02  1.746780172E-01 -5.688541800E-03  7.356539923E+04  2.057615147E+02  3.247873034E+02  2.626917956E+02  3.698852010E+02  9.827401303E-01 
        85 -1.397929867E-02  1.751251779E-01 -3.446989688E-03  7.269233020E+04  2.092175303E+02  3.243111005E+02  2.619223132E+02  3.730126095E+02  9.774682410E-01 
        86 -1.139011487E-02  1.755573757E-01 -1.256774906E-03  7.351610193E+04  2.105542533E+02  3.248078947E+02  2.627257824E+02  3.715083537E+02  9.697901979E-01 
        87 -8.734274343E-03  1.759085237E-01  8.667805443E-04  7.809990247E+04  2.053427640E+02  3.276235249E+02  2.673047092E+02  3.597141793E+02  9.642847618E-01 
        88 -6.073383534E-03  1.762548475E-01  2.984781313E-03  8.819605298E+04  1.899046677E+02  3.334733598E+02  2.769358696E+02  3.310881364E+02  9.674803754E-01 
        89 -3.359730182E-03  1.765819110E-01  5.053045394E-03  9.755846716E+04  1.763767633E+02  3.380090945E+02  2.845144919E+02  3.057148690E+02  9.801376141E-01 
        90 -6.741955509E-04  1.768270807E-01  7.130208361E-03  9.694728670E+04  1.677786047E+02  3.376472853E+02  2.839058272E+02  3.108575524E+02  1.017259033E+00 
        91  2.027043660E-03  1.770783858E-01  9.208570588E-03  7.871572101E+04  1.937618339E+02  3.279219224E+02  2.677936604E+02  3.601566560E+02  1.004255155E+00 
        92  4.731686997E-03  1.772422585E-01  1.127155269E-02  7.402096092E+04  2.116140842E+02  3.249561289E+02  2.629645662E+02  3.735178559E+02  9.698968674E-01 
        93  7.454465044E-03  1.773874983E-01  1.334309669E-02  7.397430721E+04  2.075847725E+02  3.251112401E+02  2.632153587E+02  3.703416266E+02  9.770761710E-01 
        94  1.015989937E-02  1.775222933E-01  1.545596277E-02  7.090492117E+04  2.156480594E+02  3.232292922E+02  2.601822235E+02  3.788716244E+02  9.681504764E-01 
        95  1.284858280E-02  1.775661421E-01  1.756817794E-02  6.744808035E+04  2.268590201E+02  3.210122633E+02  2.566246216E+02  3.913934360E+02  9.570972156E-01 
        96  1.551966693E-02  1.776138061E-01  1.970369132E-02  6.442211914E+04  2.371354923E+02  3.188033748E+02  2.531102231E+02  4.016330814E+02  9.452597853E-01 
        97  1.817410325E-02  1.776258069E-01  2.186017323E-02  6.168473169E+04  2.448470449E+02  3.170060949E+02  2.502619648E+02  4.077319112E+02  9.334798558E-01 
        98  2.080993586E-02  1.775631240E-01  2.403936301E-02  5.972639563E+04  2.523181086E+02  3.156318316E+02  2.480958424E+02  4.121545382E+02  9.187723082E-01 
        99  2.341570779E-02  1.774969016E-01  2.625394818E-02  5.930325354E+04  2.577687330E+02  3.152695436E+02  2.475277343E+02  4.149345341E+02  9.063917007E-01 
       100  2.600295182E-02  1.773818036E-01  2.848806157E-02  6.106405811E+04  2.598232670E+02  3.165546856E+02  2.495601158E+02  4.111748447E+02  8.911108188E-01 
       101  2.856627515E-02  1.771883875E-01  3.074502562E-02  6.650596436E+04  2.557715216E+02  3.203695993E+02  2.556642389E+02  3.956879711E+02  8.718461022E-01 
       102  3.110662233E-02  1.769811535E-01  3.302644514E-02  7.493655347E+04  2.464564104E+02  3.260062561E+02  2.647363834E+02  3.711096926E+02  8.518055286E-01 
       103  3.362247542E-02  1.767159818E-01  3.532849163E-02  8.166688794E+04  2.427421064E+02  3.299707031E+02  2.711616116E+02  3.528369789E+02  8.281457536E-01 
       104  3.610895472E-02  1.763647845E-01  3.765120331E-02  8.306118799E+04  2.472878158E+02  3.307067866E+02  2.723591681E+02  3.503119993E+02  8.082071897E-01 
       105  3.856497337E-02  1.759966372E-01  4.000321012E-02  8.061537613E+04  2.560087423E+02  3.293770754E+02  2.701718932E+02  3.571511229E+02  7.913598488E-01 
       106  4.103059304E-02  1.755360248E-01  4.234569910E-02  7.836057821E+04  2.642049932E+02  3.280140180E+02  2.679368710E+02  3.635019413E+02  7.752858888E-01 
       107  4.340106546E-02  1.750377176E-01  4.474435622E-02  7.870965625E+04  2.680075240E+02  3.282536989E+02  2.683295236E+02  3.630241756E+02  7.613894325E-01 
       108  4.575540032E-02  1.745445103E-01  4.717695363E-02  8.212984790E+04  2.665727115E+02  3.303595123E+02  2.717888179E+02  3.523519917E+02  7.460823059E-01 
       109  4.807037784E-02  1.739953488E-01  4.963532790E-02  8.833437402E+04  2.618572178E+02  3.337694683E+02  2.774359512E+02  3.358637085E+02  7.328386661E-01 
       110  5.034733117E-02  1.734133857E-01  5.212084081E-02  9.494250586E+04  2.571503735E+02  3.373282585E+02  2.833768482E+02  3.165476532E+02  7.169524543E-01 
       111  5.258765486E-02  1.728405975E-01  5.464144749E-02  9.937800342E+04  2.569964638E+02  3.395333176E+02  2.870857334E+02  3.045141125E+02  6.981967874E-01 
       112  5.479076840E-02  1.722430532E-01  5.718902978E-02  1.022118054E+05  2.581569290E+02  3.408024235E+02  2.892348490E+02  2.997363272E+02  6.866109893E-01 
       113  5.694737683E-02  1.716020731E-01  5.976586917E-02  1.051571938E+05  2.578360994E+02  3.420785308E+02  2.914051490E+02  2.932414579E+02  6.782377241E-01 
       114  5.911848447E-02  1.709340834E-01  6.233872565E-02  1.084903759E+05  2.568439685E+02  3.434964216E+02  2.938255558E+02  2.845816101E+02  6.694273500E-01 
       115  6.119351897E-02  1.703313828E-01  6.496775561E-02  1.113350686E+05  2.554044065E+02  3.448211079E+02  2.960964994E+02  2.752604823E+02  6.627567932E-01 
       116  6.319798910E-02  1.696485115E-01  6.765543605E-02  1.135839119E+05  2.536315756E+02  3.459669390E+02  2.980666103E+02  2.684541912E+02  6.607158286E-01 
       117  6.520189851E-02  1.689621155E-01  7.034628384E-02  1.156763291E+05  2.528046551E+02  3.467956657E+02  2.994958858E+02  2.636131191E+02  6.581772175E-01 
       118  6.717992039E-02  1.682884043E-01  7.305807409E-02  1.174139600E+05  2.509859934E+02  3.475384388E+02  3.007800827E+02  2.597024908E+02  6.610855032E-01 
       119  6.910755662E-02  1.675987334E-01  7.579818779E-02  1.188280568E+05  2.496497748E+02  3.480629561E+02  3.016887288E+02  2.572312167E+02  6.639890452E-01 
       120  7.101404689E-02  1.668389198E-01  7.852135391E-02  1.197476031E+05  2.468003906E+02  3.485439539E+02  3.025230975E+02  2.541323082E+02  6.723097912E-01 
