nodenumber     x-coordinate     y-coordinate     z-coordinate         pressure velocity-magnitude      sound-speed      temperature rel-velocity-magnitude relative-velocity-angle 
         1 -2.216901913E-02  1.039879580E-01 -4.300600202E-02  8.753200465E+04  1.538181701E+02  3.330597875E+02  2.762405488E+02  2.355931797E+02  8.595473623E-01 
         2 -2.197401757E-02  1.042260031E-01 -4.002397295E-02  8.745906482E+04  1.545710034E+02  3.329859821E+02  2.761180351E+02  2.363446621E+02  8.582185439E-01 
         3 -2.150271627E-02  1.045375264E-01 -3.708169353E-02  8.734181665E+04  1.550695677E+02  3.329394941E+02  2.760410047E+02  2.371365217E+02  8.585725725E-01 
         4 -2.072290556E-02  1.049359494E-01 -3.421635317E-02  8.724053406E+04  1.554914081E+02  3.329101586E+02  2.759924297E+02  2.377197938E+02  8.587774932E-01 
         5 -1.964621854E-02  1.053757771E-01 -3.145501365E-02  8.708182861E+04  1.562847633E+02  3.328195848E+02  2.758422170E+02  2.381839576E+02  8.565486446E-01 
         6 -1.833909717E-02  1.058829391E-01 -2.880182754E-02  8.691947754E+04  1.572676177E+02  3.327123718E+02  2.756645474E+02  2.395755296E+02  8.564425968E-01 
         7 -1.686396899E-02  1.064019756E-01 -2.624136390E-02  8.678488208E+04  1.582344732E+02  3.326224985E+02  2.755155993E+02  2.405694618E+02  8.550527040E-01 
         8 -1.524276490E-02  1.069101094E-01 -2.376908005E-02  8.660947839E+04  1.591189322E+02  3.325375204E+02  2.753749123E+02  2.415216928E+02  8.542231508E-01 
         9 -1.353040875E-02  1.074492491E-01 -2.136449246E-02  8.634152502E+04  1.602129591E+02  3.323986397E+02  2.751449487E+02  2.426891344E+02  8.529198114E-01 
        10 -1.175719847E-02  1.079385502E-01 -1.899452623E-02  8.615928815E+04  1.612726697E+02  3.323223178E+02  2.750185685E+02  2.436383717E+02  8.509406457E-01 
        11 -9.920451205E-03  1.084473482E-01 -1.667649769E-02  8.609813568E+04  1.624293920E+02  3.322845645E+02  2.749560343E+02  2.446756361E+02  8.489744787E-01 
        12 -8.053093039E-03  1.089314126E-01 -1.437870322E-02  8.629500269E+04  1.628031926E+02  3.324038440E+02  2.751534687E+02  2.445563217E+02  8.471202874E-01 
        13 -6.139911673E-03  1.093816015E-01 -1.211111235E-02  8.681313452E+04  1.624512095E+02  3.326469326E+02  2.755561776E+02  2.429710078E+02  8.439445291E-01 
        14 -4.213714023E-03  1.098625599E-01 -9.853315987E-03  8.764204736E+04  1.606444082E+02  3.330571461E+02  2.762363777E+02  2.406298361E+02  8.465218209E-01 
        15 -2.267252226E-03  1.102821410E-01 -7.616721013E-03  8.856566797E+04  1.561651402E+02  3.336153393E+02  2.771629934E+02  2.372834997E+02  8.604160957E-01 
        16 -3.058463972E-04  1.106716081E-01 -5.380345181E-03  8.953219165E+04  1.493713145E+02  3.340924826E+02  2.779566393E+02  2.340799913E+02  8.880622108E-01 
        17  1.649896870E-03  1.110991589E-01 -3.144821902E-03  8.736324841E+04  1.459094760E+02  3.329986463E+02  2.761406429E+02  2.414936657E+02  9.330268539E-01 
        18  3.605378217E-03  1.114680886E-01 -8.997268064E-04  7.562909973E+04  1.772640343E+02  3.260564623E+02  2.647477322E+02  2.868306036E+02  9.357705284E-01 
        19  5.548952344E-03  1.118349081E-01  1.356589372E-03  7.004378406E+04  2.069995580E+02  3.230840096E+02  2.599423687E+02  3.064402883E+02  8.529718854E-01 
        20  7.472030685E-03  1.121892539E-01  3.633809071E-03  7.302667694E+04  2.108362309E+02  3.248440223E+02  2.627883284E+02  2.943415487E+02  7.826576482E-01 
        21  9.366594022E-03  1.125505666E-01  5.932977735E-03  7.667152264E+04  2.049117268E+02  3.274072428E+02  2.669487350E+02  2.799197333E+02  7.566198912E-01 
        22  1.122147558E-02  1.129077905E-01  8.263617067E-03  7.895859666E+04  2.055411706E+02  3.287366631E+02  2.691191787E+02  2.737277211E+02  7.307997502E-01 
        23  1.303284284E-02  1.132507638E-01  1.062953057E-02  8.049055753E+04  2.092149411E+02  3.295015707E+02  2.703718682E+02  2.683641712E+02  6.936727995E-01 
        24  1.479928419E-02  1.136234762E-01  1.303021626E-02  8.168790079E+04  2.140032152E+02  3.300705929E+02  2.713064706E+02  2.651447042E+02  6.579590479E-01 
        25  1.649617427E-02  1.139938279E-01  1.547769530E-02  8.276401605E+04  2.189088399E+02  3.305884683E+02  2.721580827E+02  2.628548176E+02  6.248378847E-01 
        26  1.811807173E-02  1.143837002E-01  1.797032872E-02  8.350648547E+04  2.246929593E+02  3.309115157E+02  2.726895103E+02  2.617873178E+02  5.917335115E-01 
        27  1.968166241E-02  1.148013513E-01  2.049621310E-02  8.360062982E+04  2.320787055E+02  3.308999627E+02  2.726703911E+02  2.626586027E+02  5.570351286E-01 
        28  2.119101764E-02  1.152299366E-01  2.305322148E-02  8.307771336E+04  2.406310421E+02  3.305876001E+02  2.721560490E+02  2.649368994E+02  5.215123699E-01 
        29  2.266338778E-02  1.156643914E-01  2.563116057E-02  8.245729926E+04  2.491442676E+02  3.302154462E+02  2.715436099E+02  2.674834374E+02  4.876397443E-01 
        30  2.408077791E-02  1.161159634E-01  2.823658064E-02  8.190704095E+04  2.577537370E+02  3.298184166E+02  2.708910511E+02  2.709692917E+02  4.564939775E-01 
        31  2.544088325E-02  1.165921105E-01  3.086849856E-02  8.132968262E+04  2.656147299E+02  3.295279269E+02  2.704140415E+02  2.737994633E+02  4.270387678E-01 
        32  2.674433127E-02  1.170738851E-01  3.352942364E-02  8.072655908E+04  2.730201342E+02  3.293144979E+02  2.700637450E+02  2.758902352E+02  3.975013681E-01 
        33  2.797950643E-02  1.175445507E-01  3.622298897E-02  8.016416479E+04  2.811402963E+02  3.289980814E+02  2.695452336E+02  2.784315349E+02  3.661909438E-01 
        34  2.916313541E-02  1.180056499E-01  3.893937175E-02  7.983602985E+04  2.897450995E+02  3.286353909E+02  2.689514358E+02  2.815027183E+02  3.344750926E-01 
        35  3.031249539E-02  1.184785399E-01  4.167042727E-02  7.994853876E+04  2.957804834E+02  3.287392468E+02  2.691212685E+02  2.822847191E+02  3.073453375E-01 
        36  3.139929926E-02  1.189405785E-01  4.442941843E-02  8.022184515E+04  3.006674697E+02  3.290702474E+02  2.696629714E+02  2.819028117E+02  2.816441582E-01 
        37  3.242013936E-02  1.193808800E-01  4.721660669E-02  8.075273943E+04  3.059619942E+02  3.294053568E+02  2.702127701E+02  2.812194042E+02  2.523189262E-01 
        38  3.340677803E-02  1.198011670E-01  5.002067675E-02  8.207817441E+04  3.089013518E+02  3.302120569E+02  2.715389030E+02  2.778986123E+02  2.250026757E-01 
        39  3.430413654E-02  1.201853153E-01  5.285529857E-02  8.385378857E+04  3.103739042E+02  3.312508030E+02  2.732500496E+02  2.730459785E+02  1.992559312E-01 
        40  3.515433510E-02  1.205874318E-01  5.570324370E-02  8.596723242E+04  3.106868229E+02  3.323632736E+02  2.750885277E+02  2.672497654E+02  1.760429852E-01 
        41  3.592907297E-02  1.209644065E-01  5.857535950E-02  8.834001733E+04  3.092636204E+02  3.336101122E+02  2.771567807E+02  2.605192571E+02  1.588095720E-01 
        42  3.664355424E-02  1.213334730E-01  6.146049591E-02  9.081237207E+04  3.061832366E+02  3.348687468E+02  2.792517633E+02  2.529423108E+02  1.477661596E-01 
        43  3.727845098E-02  1.217084379E-01  6.437276718E-02  9.307947437E+04  3.023442430E+02  3.359399242E+02  2.810403652E+02  2.456956081E+02  1.430428815E-01 
        44  3.781448665E-02  1.220744111E-01  6.730672953E-02  9.482170728E+04  2.985403795E+02  3.367708654E+02  2.824315910E+02  2.398478584E+02  1.444384824E-01 
        45  3.826762164E-02  1.224563704E-01  7.025293559E-02  9.591648358E+04  2.957305841E+02  3.372856836E+02  2.832952096E+02  2.359881157E+02  1.485023770E-01 
        46  3.856443464E-02  1.228195695E-01  7.317567491E-02  9.642944531E+04  2.937406082E+02  3.375941315E+02  2.838139038E+02  2.339551315E+02  1.551591791E-01 
        47  3.882754171E-02  1.231963568E-01  7.616928387E-02  9.661528360E+04  2.916162326E+02  3.381481286E+02  2.847479626E+02  2.318180026E+02  1.627310968E-01 
        48  3.896508106E-02  1.235573809E-01  7.913505459E-02  9.668924414E+04  2.870231552E+02  3.393203354E+02  2.867411804E+02  2.241906853E+02  1.671266332E-01 
        49  3.903512947E-02  1.239238609E-01  8.213137167E-02  9.663153870E+04  2.752293782E+02  3.417973168E+02  2.909712410E+02  2.040509155E+02  1.811531018E-01 
        50  3.900153017E-02  1.243001337E-01  8.510504302E-02  9.647143250E+04  2.579217016E+02  3.453861147E+02  2.971210922E+02  1.696041921E+02  1.810945884E-01 
        51  3.889299026E-02  1.246700891E-01  8.806950082E-02  9.630634814E+04  2.398135867E+02  3.493661854E+02  3.039965882E+02  1.213490784E+02  1.703986124E-01 
        52  3.870303970E-02  1.250405990E-01  9.105247242E-02  9.617705786E+04  2.321158972E+02  3.521280670E+02  3.087907128E+02  7.880912650E+01  4.909357271E-02 
        53  3.847530202E-02  1.253810613E-01  9.402032493E-02  9.676993799E+04  2.335352616E+02  3.529568292E+02  3.102407390E+02  4.612015543E+01 -3.991795007E-01 
        54  3.809583015E-02  1.257752167E-01  9.695318516E-02  9.677599023E+04  2.297843208E+02  3.530362816E+02  3.103746529E+02  4.072200346E+01 -7.583760843E-01 
        55  3.767199372E-02  1.261489404E-01  9.992435767E-02  9.792417432E+04  2.447384944E+02  3.524600325E+02  3.093610077E+02  4.813354206E+01 -1.647568993E+00 
        56  3.723780727E-02  1.265196365E-01  1.028569506E-01  1.000285748E+05  2.544202274E+02  3.520362331E+02  3.086178578E+02  6.471130396E+01 -1.187336733E+00 
        57  3.672955052E-02  1.269046997E-01  1.057947981E-01  1.013683726E+05  2.463958175E+02  3.505450759E+02  3.060088768E+02  1.091594551E+02 -1.031173476E-01 
        58  3.615520807E-02  1.273091289E-01  1.087154776E-01  1.029254570E+05  2.380943379E+02  3.479488487E+02  3.014959354E+02  1.509641428E+02  2.479829770E-01 
        59  3.556812424E-02  1.277144368E-01  1.116309472E-01  1.050398654E+05  2.441639116E+02  3.449545221E+02  2.963292170E+02  1.804606056E+02  2.930419899E-01 
        60  3.495651588E-02  1.281329458E-01  1.145394580E-01  1.068928914E+05  2.513531957E+02  3.434310465E+02  2.937155333E+02  1.905154886E+02  2.763604270E-01 
        61  3.433795015E-02  1.285471243E-01  1.174457346E-01  1.079470620E+05  2.560647943E+02  3.432310429E+02  2.933710599E+02  1.915070872E+02  2.500035318E-01 
        62  3.376061330E-02  1.289460490E-01  1.203607660E-01  1.082732922E+05  2.612329752E+02  3.435419049E+02  2.939023731E+02  1.927332907E+02  2.229935634E-01 
        63  3.331803132E-02  1.293309423E-01  1.232882868E-01  1.082020134E+05  2.666608111E+02  3.436217653E+02  2.940391463E+02  1.958891293E+02  2.020263021E-01 
        64  3.310586596E-02  1.296649637E-01  1.262581306E-01  1.080661650E+05  2.698909128E+02  3.434652228E+02  2.937711754E+02  1.983364863E+02  1.926572121E-01 
        65  3.306639982E-02  1.299493947E-01  1.292495641E-01  1.079307264E+05  2.727528065E+02  3.429484981E+02  2.928880488E+02  1.999877882E+02  1.827995467E-01 
        66  3.322486525E-02  1.302097713E-01  1.322380794E-01  1.077320214E+05  2.727529891E+02  3.428235053E+02  2.926744867E+02  2.019098262E+02  1.914691348E-01 
        67  3.356462385E-02  1.304573038E-01  1.352130229E-01  1.075203579E+05  2.736929574E+02  3.426536640E+02  2.923844661E+02  2.027779387E+02  1.910878055E-01 
        68  3.400410102E-02  1.306751199E-01  1.381765647E-01  1.072341187E+05  2.744628656E+02  3.426020708E+02  2.922964704E+02  2.031334553E+02  1.899211125E-01 
        69  3.451963359E-02  1.308741206E-01  1.411278790E-01  1.069254022E+05  2.755416796E+02  3.425520473E+02  2.922110732E+02  2.039643142E+02  1.886942077E-01 
        70  3.508991352E-02  1.310576265E-01  1.440660380E-01  1.066362397E+05  2.769198337E+02  3.424748125E+02  2.920791881E+02  2.057873583E+02  1.891682495E-01 
        71  3.570211579E-02  1.312503676E-01  1.470000000E-01  1.063048164E+05  2.785655670E+02  3.423604317E+02  2.918814049E+02  2.084786663E+02  1.908266488E-01 
        72 -2.843361623E-02  1.708417341E-01 -4.258217492E-02  8.214073755E+04  1.835650325E+02  3.300279903E+02  2.712343903E+02  3.440492907E+02  1.008009668E+00 
        73 -2.838826984E-02  1.709653765E-01 -3.916427879E-02  8.216822919E+04  1.834137938E+02  3.300958776E+02  2.713460562E+02  3.444155622E+02  1.009290475E+00 
        74 -2.835908450E-02  1.711140563E-01 -3.574649433E-02  8.234634247E+04  1.835403183E+02  3.301593642E+02  2.714507215E+02  3.427443085E+02  1.005858240E+00 
        75 -2.838361088E-02  1.712589164E-01 -3.232950605E-02  8.268780444E+04  1.842313337E+02  3.302384834E+02  2.715808506E+02  3.440094080E+02  1.006216981E+00 
        76 -2.841360827E-02  1.714319125E-01 -2.891476756E-02  8.325793860E+04  1.825900578E+02  3.306789126E+02  2.723056121E+02  3.411157384E+02  1.006538317E+00 
        77 -2.833774301E-02  1.716334782E-01 -2.549995819E-02  8.382708066E+04  1.810014186E+02  3.310520369E+02  2.729206514E+02  3.389602422E+02  1.008197803E+00 
        78 -2.791452343E-02  1.719215161E-01 -2.212016887E-02  8.416817285E+04  1.814728613E+02  3.310983868E+02  2.729969044E+02  3.407951984E+02  1.009911202E+00 
        79 -2.700703325E-02  1.722886754E-01 -1.884820631E-02  8.411494092E+04  1.810734024E+02  3.310351353E+02  2.728925552E+02  3.403173227E+02  1.010350596E+00 
        80 -2.544395246E-02  1.727209334E-01 -1.584518523E-02  8.326335272E+04  1.815826331E+02  3.306054456E+02  2.721848233E+02  3.430793283E+02  1.013518548E+00 
        81 -2.351536464E-02  1.732363399E-01 -1.306823492E-02  8.136973146E+04  1.843844047E+02  3.296309103E+02  2.705831655E+02  3.484954618E+02  1.013769015E+00 
        82 -2.134527601E-02  1.737374909E-01 -1.047435973E-02  7.872539748E+04  1.916380397E+02  3.279342016E+02  2.678068647E+02  3.561086299E+02  1.003825940E+00 
        83 -1.897326710E-02  1.742189522E-01 -8.035177519E-03  7.590949582E+04  1.977512535E+02  3.264568881E+02  2.653984438E+02  3.631190808E+02  9.963151766E-01 
        84 -1.652827274E-02  1.746780172E-01 -5.688541800E-03  7.385983667E+04  2.052660420E+02  3.249595532E+02  2.629686902E+02  3.695933452E+02  9.839379676E-01 
        85 -1.397929867E-02  1.751251779E-01 -3.446989688E-03  7.290002747E+04  2.075856462E+02  3.245956321E+02  2.623798232E+02  3.714465284E+02  9.797127564E-01 
        86 -1.139011487E-02  1.755573757E-01 -1.256774906E-03  7.363735071E+04  2.106247447E+02  3.248348484E+02  2.627691779E+02  3.714154453E+02  9.694142062E-01 
        87 -8.734274343E-03  1.759085237E-01  8.667805443E-04  7.813540881E+04  2.050176427E+02  3.276618075E+02  2.673691890E+02  3.584996543E+02  9.634355707E-01 
        88 -6.073383534E-03  1.762548475E-01  2.984781313E-03  8.806170404E+04  1.908757102E+02  3.332849288E+02  2.766237921E+02  3.325999122E+02  9.671817953E-01 
        89 -3.359730182E-03  1.765819110E-01  5.053045394E-03  9.801294739E+04  1.753841575E+02  3.383445821E+02  2.850815706E+02  3.057417181E+02  9.839011845E-01 
        90 -6.741955509E-04  1.768270807E-01  7.130208361E-03  9.650421051E+04  1.702054535E+02  3.373536336E+02  2.834121996E+02  3.089703504E+02  1.005334568E+00 
        91  2.027043660E-03  1.770783858E-01  9.208570588E-03  7.931196803E+04  1.929086462E+02  3.282788324E+02  2.683744614E+02  3.592500393E+02  1.005851359E+00 
        92  4.731686997E-03  1.772422585E-01  1.127155269E-02  7.424448860E+04  2.104344351E+02  3.252256765E+02  2.634006928E+02  3.732768375E+02  9.737528531E-01 
        93  7.454465044E-03  1.773874983E-01  1.334309669E-02  7.398442165E+04  2.109096978E+02  3.247886449E+02  2.626947432E+02  3.747673306E+02  9.751406701E-01 
        94  1.015989937E-02  1.775222933E-01  1.545596277E-02  7.086925188E+04  2.191910603E+02  3.228325216E+02  2.595463666E+02  3.820139166E+02  9.627247359E-01 
        95  1.284858280E-02  1.775661421E-01  1.756817794E-02  6.725508484E+04  2.277308546E+02  3.207257462E+02  2.561669214E+02  3.911132174E+02  9.533743686E-01 
        96  1.551966693E-02  1.776138061E-01  1.970369132E-02  6.424427649E+04  2.356257491E+02  3.188384306E+02  2.531666791E+02  3.999053369E+02  9.463486457E-01 
        97  1.817410325E-02  1.776258069E-01  2.186017323E-02  6.170470435E+04  2.458090019E+02  3.168597202E+02  2.500319834E+02  4.097918382E+02  9.346614350E-01 
        98  2.080993586E-02  1.775631240E-01  2.403936301E-02  5.986553540E+04  2.528570070E+02  3.157200251E+02  2.482315807E+02  4.137880764E+02  9.201763868E-01 
        99  2.341570779E-02  1.774969016E-01  2.625394818E-02  5.918690442E+04  2.576081967E+02  3.153991060E+02  2.477276716E+02  4.137687035E+02  9.045040328E-01 
       100  2.600295182E-02  1.773818036E-01  2.848806157E-02  6.086822974E+04  2.593389072E+02  3.165691023E+02  2.495859194E+02  4.098628273E+02  8.898637891E-01 
       101  2.856627515E-02  1.771883875E-01  3.074502562E-02  6.649419824E+04  2.544922380E+02  3.204253511E+02  2.557566080E+02  3.943771915E+02  8.735209480E-01 
       102  3.110662233E-02  1.769811535E-01  3.302644514E-02  7.492104346E+04  2.459965544E+02  3.259955177E+02  2.647234621E+02  3.702709532E+02  8.522254843E-01 
       103  3.362247542E-02  1.767159818E-01  3.532849163E-02  8.165506445E+04  2.427868099E+02  3.300130892E+02  2.712310572E+02  3.526543760E+02  8.278459683E-01 
       104  3.610895472E-02  1.763647845E-01  3.765120331E-02  8.297418811E+04  2.475342250E+02  3.305822501E+02  2.721531377E+02  3.495087733E+02  8.060330981E-01 
       105  3.856497337E-02  1.759966372E-01  4.000321012E-02  8.045255737E+04  2.561065264E+02  3.291867874E+02  2.698600581E+02  3.583695681E+02  7.929706573E-01 
       106  4.103059304E-02  1.755360248E-01  4.234569910E-02  7.809285323E+04  2.628775630E+02  3.281065103E+02  2.680870675E+02  3.630287300E+02  7.784477325E-01 
       107  4.340106546E-02  1.750377176E-01  4.474435622E-02  7.837997778E+04  2.684745480E+02  3.281140592E+02  2.681000712E+02  3.628886037E+02  7.593936389E-01 
       108  4.575540032E-02  1.745445103E-01  4.717695363E-02  8.191894092E+04  2.675631385E+02  3.301691365E+02  2.714773116E+02  3.537555971E+02  7.455600584E-01 
       109  4.807037784E-02  1.739953488E-01  4.963532790E-02  8.834668408E+04  2.623133411E+02  3.337370319E+02  2.773807821E+02  3.355155888E+02  7.308580801E-01 
       110  5.034733117E-02  1.734133857E-01  5.212084081E-02  9.520907080E+04  2.577761364E+02  3.372379456E+02  2.832250080E+02  3.179109497E+02  7.167668827E-01 
       111  5.258765486E-02  1.728405975E-01  5.464144749E-02  9.963684717E+04  2.566140022E+02  3.395530834E+02  2.871196880E+02  3.053806419E+02  7.007744089E-01 
       112  5.479076840E-02  1.722430532E-01  5.718902978E-02  1.023511226E+05  2.578143177E+02  3.409471931E+02  2.894806910E+02  2.975424604E+02  6.846877895E-01 
       113  5.694737683E-02  1.716020731E-01  5.976586917E-02  1.052535613E+05  2.577493646E+02  3.422888784E+02  2.917634912E+02  2.910621538E+02  6.754790535E-01 
       114  5.911848447E-02  1.709340834E-01  6.233872565E-02  1.086071697E+05  2.565996631E+02  3.436659555E+02  2.941152808E+02  2.842418570E+02  6.697874707E-01 
       115  6.119351897E-02  1.703313828E-01  6.496775561E-02  1.114897742E+05  2.558541894E+02  3.448266106E+02  2.961055980E+02  2.770915427E+02  6.632036678E-01 
       116  6.319798910E-02  1.696485115E-01  6.765543605E-02  1.137300616E+05  2.549426060E+02  3.458396878E+02  2.978478327E+02  2.697111664E+02  6.573314490E-01 
       117  6.520189851E-02  1.689621155E-01  7.034628384E-02  1.158478359E+05  2.524443293E+02  3.469107590E+02  2.996954079E+02  2.629661827E+02  6.589213070E-01 
       118  6.717992039E-02  1.682884043E-01  7.305807409E-02  1.175116953E+05  2.507251244E+02  3.476173725E+02  3.009167013E+02  2.589216375E+02  6.613318529E-01 
       119  6.910755662E-02  1.675987334E-01  7.579818779E-02  1.187421387E+05  2.495609164E+02  3.480137546E+02  3.016030953E+02  2.568555312E+02  6.641003704E-01 
       120  7.101404689E-02  1.668389198E-01  7.852135391E-02  1.196719940E+05  2.460388770E+02  3.485377338E+02  3.025123100E+02  2.551373904E+02  6.763877519E-01 
