nodenumber     x-coordinate     y-coordinate     z-coordinate         pressure velocity-magnitude      sound-speed      temperature rel-velocity-magnitude relative-velocity-angle 
         1 -2.216901913E-02  1.039879580E-01 -4.300600202E-02  8.754956139E+04  1.539454321E+02  3.330504228E+02  2.762249294E+02  2.357955262E+02  8.594718871E-01 
         2 -2.197401757E-02  1.042260031E-01 -4.002397295E-02  8.746681519E+04  1.544286274E+02  3.330054272E+02  2.761502728E+02  2.363459243E+02  8.589594429E-01 
         3 -2.150271627E-02  1.045375264E-01 -3.708169353E-02  8.736255591E+04  1.550542047E+02  3.329486599E+02  2.760561113E+02  2.370212561E+02  8.582072654E-01 
         4 -2.072290556E-02  1.049359494E-01 -3.421635317E-02  8.724857312E+04  1.557433677E+02  3.328888941E+02  2.759570665E+02  2.377613671E+02  8.574052351E-01 
         5 -1.964621854E-02  1.053757771E-01 -3.145501365E-02  8.712667554E+04  1.564450293E+02  3.328264074E+02  2.758534617E+02  2.385180140E+02  8.566411417E-01 
         6 -1.833909717E-02  1.058829391E-01 -2.880182754E-02  8.697761108E+04  1.572206354E+02  3.327488279E+02  2.757248702E+02  2.394337697E+02  8.560801726E-01 
         7 -1.686396899E-02  1.064019756E-01 -2.624136390E-02  8.679829053E+04  1.580709267E+02  3.326537561E+02  2.755673370E+02  2.404497924E+02  8.555037137E-01 
         8 -1.524276490E-02  1.069101094E-01 -2.376908005E-02  8.658503003E+04  1.590620198E+02  3.325387578E+02  2.753768358E+02  2.415861053E+02  8.546250705E-01 
         9 -1.353040875E-02  1.074492491E-01 -2.136449246E-02  8.635384753E+04  1.602477427E+02  3.324131422E+02  2.751688256E+02  2.428566420E+02  8.532050094E-01 
        10 -1.175719847E-02  1.079385502E-01 -1.899452623E-02  8.616640363E+04  1.614905260E+02  3.323119960E+02  2.750013866E+02  2.439443512E+02  8.508731099E-01 
        11 -9.920451205E-03  1.084473482E-01 -1.667649769E-02  8.611399353E+04  1.625638593E+02  3.322852991E+02  2.749572269E+02  2.446473421E+02  8.481118188E-01 
        12 -8.053093039E-03  1.089314126E-01 -1.437870322E-02  8.628483405E+04  1.630616495E+02  3.323795092E+02  2.751131130E+02  2.443777618E+02  8.450339129E-01 
        13 -6.139911673E-03  1.093816015E-01 -1.211111235E-02  8.671811279E+04  1.625775690E+02  3.326124849E+02  2.754989500E+02  2.430964556E+02  8.437498808E-01 
        14 -4.213714023E-03  1.098625599E-01 -9.853315987E-03  8.743955371E+04  1.606348476E+02  3.329976578E+02  2.761374569E+02  2.407283897E+02  8.467415348E-01 
        15 -2.267252226E-03  1.102821410E-01 -7.616721013E-03  8.848247070E+04  1.565506468E+02  3.335535011E+02  2.770602016E+02  2.372667894E+02  8.580281138E-01 
        16 -3.058463972E-04  1.106716081E-01 -5.380345181E-03  8.947830566E+04  1.495844412E+02  3.340549049E+02  2.778939209E+02  2.341026478E+02  8.865062594E-01 
        17  1.649896870E-03  1.110991589E-01 -3.144821902E-03  8.728847986E+04  1.469301507E+02  3.328846354E+02  2.759516723E+02  2.437840760E+02  9.343888257E-01 
        18  3.605378217E-03  1.114680886E-01 -8.997268064E-04  7.603477747E+04  1.737291870E+02  3.264485478E+02  2.653833461E+02  2.844153166E+02  9.432759658E-01 
        19  5.548952344E-03  1.118349081E-01  1.356589372E-03  7.016110205E+04  2.074635400E+02  3.229140637E+02  2.596687052E+02  3.062357364E+02  8.495241501E-01 
        20  7.472030685E-03  1.121892539E-01  3.633809071E-03  7.263479625E+04  2.120326552E+02  3.245124460E+02  2.622483658E+02  2.979766629E+02  7.903154467E-01 
        21  9.366594022E-03  1.125505666E-01  5.932977735E-03  7.626030939E+04  2.087368039E+02  3.267045381E+02  2.658025193E+02  2.852936869E+02  7.576708011E-01 
        22  1.122147558E-02  1.129077905E-01  8.263617067E-03  7.871191344E+04  2.085208915E+02  3.280682687E+02  2.680244959E+02  2.767890684E+02  7.269576607E-01 
        23  1.303284284E-02  1.132507638E-01  1.062953057E-02  8.029321077E+04  2.112584558E+02  3.289169837E+02  2.694122397E+02  2.717562361E+02  6.947172129E-01 
        24  1.479928419E-02  1.136234762E-01  1.303021626E-02  8.145984268E+04  2.158065585E+02  3.295967301E+02  2.705269821E+02  2.682304471E+02  6.588606548E-01 
        25  1.649617427E-02  1.139938279E-01  1.547769530E-02  8.252246887E+04  2.207486396E+02  3.302174718E+02  2.715469439E+02  2.650705795E+02  6.224375847E-01 
        26  1.811807173E-02  1.143837002E-01  1.797032872E-02  8.332407996E+04  2.261162302E+02  3.306773758E+02  2.723032928E+02  2.629614577E+02  5.877970420E-01 
        27  1.968166241E-02  1.148013513E-01  2.049621310E-02  8.353450482E+04  2.329065685E+02  3.308162053E+02  2.725316253E+02  2.630964684E+02  5.539519014E-01 
        28  2.119101764E-02  1.152299366E-01  2.305322148E-02  8.306345174E+04  2.413416746E+02  3.306365958E+02  2.722357151E+02  2.654491030E+02  5.194414158E-01 
        29  2.266338778E-02  1.156643914E-01  2.563116057E-02  8.243350092E+04  2.502344991E+02  3.303011544E+02  2.716837447E+02  2.686390460E+02  4.856800449E-01 
        30  2.408077791E-02  1.161159634E-01  2.823658064E-02  8.187081238E+04  2.584726200E+02  3.300269477E+02  2.712328517E+02  2.714797049E+02  4.543085136E-01 
        31  2.544088325E-02  1.165921105E-01  3.086849856E-02  8.131745300E+04  2.666003966E+02  3.297205830E+02  2.707296643E+02  2.743880825E+02  4.240561752E-01 
        32  2.674433127E-02  1.170738851E-01  3.352942364E-02  8.075761963E+04  2.746094575E+02  3.294243975E+02  2.702436881E+02  2.773753605E+02  3.949109949E-01 
        33  2.797950643E-02  1.175445507E-01  3.622298897E-02  8.023171643E+04  2.824052790E+02  3.291957526E+02  2.698689413E+02  2.801597897E+02  3.661897960E-01 
        34  2.916313541E-02  1.180056499E-01  3.893937175E-02  7.993863184E+04  2.896013587E+02  3.290753366E+02  2.696719174E+02  2.821188143E+02  3.374902898E-01 
        35  3.031249539E-02  1.184785399E-01  4.167042727E-02  8.010308444E+04  2.953981044E+02  3.290981810E+02  2.697096691E+02  2.825885302E+02  3.104743481E-01 
        36  3.139929926E-02  1.189405785E-01  4.442941843E-02  8.041700665E+04  3.006891181E+02  3.292174242E+02  2.699049830E+02  2.824632905E+02  2.837263498E-01 
        37  3.242013936E-02  1.193808800E-01  4.721660669E-02  8.097301818E+04  3.057156631E+02  3.293519154E+02  2.701252027E+02  2.814751861E+02  2.547085244E-01 
        38  3.340677803E-02  1.198011670E-01  5.002067675E-02  8.219133261E+04  3.085527840E+02  3.299425318E+02  2.710947002E+02  2.781337187E+02  2.278250646E-01 
        39  3.430413654E-02  1.201853153E-01  5.285529857E-02  8.374264355E+04  3.102256355E+02  3.308773785E+02  2.726336107E+02  2.735221710E+02  2.020039698E-01 
        40  3.515433510E-02  1.205874318E-01  5.570324370E-02  8.561554199E+04  3.107057114E+02  3.319454460E+02  2.743968639E+02  2.678771820E+02  1.785090184E-01 
        41  3.592907297E-02  1.209644065E-01  5.857535950E-02  8.772588062E+04  3.097772384E+02  3.330963631E+02  2.763034301E+02  2.612461934E+02  1.588965072E-01 
        42  3.664355424E-02  1.213334730E-01  6.146049591E-02  8.995851514E+04  3.074749889E+02  3.342662988E+02  2.782476711E+02  2.541164536E+02  1.451846829E-01 
        43  3.727845098E-02  1.217084379E-01  6.437276718E-02  9.210369312E+04  3.043583584E+02  3.354004841E+02  2.801384459E+02  2.473053160E+02  1.378018735E-01 
        44  3.781448665E-02  1.220744111E-01  6.730672953E-02  9.390459741E+04  3.011171484E+02  3.363538313E+02  2.817329035E+02  2.416745801E+02  1.364881839E-01 
        45  3.826762164E-02  1.224563704E-01  7.025293559E-02  9.517157208E+04  2.982974851E+02  3.370653932E+02  2.829258339E+02  2.375934181E+02  1.394255684E-01 
        46  3.856443464E-02  1.228195695E-01  7.317567491E-02  9.591265625E+04  2.961517715E+02  3.375800018E+02  2.837901611E+02  2.350022125E+02  1.444107443E-01 
        47  3.882754171E-02  1.231963568E-01  7.616928387E-02  9.626072675E+04  2.946803287E+02  3.381597447E+02  2.847670255E+02  2.336163230E+02  1.508402431E-01 
        48  3.896508106E-02  1.235573809E-01  7.913505459E-02  9.635914453E+04  2.912361259E+02  3.390956039E+02  2.863577232E+02  2.284061089E+02  1.560092159E-01 
        49  3.903512947E-02  1.239238609E-01  8.213137167E-02  9.640080042E+04  2.829341259E+02  3.408933363E+02  2.894246044E+02  2.143940672E+02  1.625884091E-01 
        50  3.900153017E-02  1.243001337E-01  8.510504302E-02  9.632219016E+04  2.690837992E+02  3.437824942E+02  2.943631399E+02  1.890742072E+02  1.630986075E-01 
        51  3.889299026E-02  1.246700891E-01  8.806950082E-02  9.620747815E+04  2.532611108E+02  3.472450271E+02  3.003282301E+02  1.494716520E+02  1.426821990E-01 
        52  3.870303970E-02  1.250405990E-01  9.105247242E-02  9.631572168E+04  2.438508749E+02  3.501091003E+02  3.052764692E+02  1.125487540E+02  6.633287203E-02 
        53  3.847530202E-02  1.253810613E-01  9.402032493E-02  9.700661374E+04  2.416545329E+02  3.519788427E+02  3.085387309E+02  7.980063418E+01 -2.047220654E-01 
        54  3.809583015E-02  1.257752167E-01  9.695318516E-02  9.915275293E+04  2.399610710E+02  3.532638092E+02  3.107834053E+02  5.331454039E+01 -6.744769327E-01 
        55  3.767199372E-02  1.261489404E-01  9.992435767E-02  1.016959797E+05  2.394784856E+02  3.538081264E+02  3.117329769E+02  4.721552992E+01 -6.176777873E-01 
        56  3.723780727E-02  1.265196365E-01  1.028569506E-01  1.041406952E+05  2.375051599E+02  3.536048217E+02  3.113744701E+02  6.007437813E+01 -2.255811876E-01 
        57  3.672955052E-02  1.269046997E-01  1.057947981E-01  1.058531519E+05  2.376989181E+02  3.521592736E+02  3.088402085E+02  9.081501973E+01  1.352519880E-02 
        58  3.615520807E-02  1.273091289E-01  1.087154776E-01  1.070022261E+05  2.434544959E+02  3.495883064E+02  3.043538399E+02  1.304949312E+02  1.299982523E-01 
        59  3.556812424E-02  1.277144368E-01  1.116309472E-01  1.075838781E+05  2.537261853E+02  3.466332271E+02  2.992273879E+02  1.660030791E+02  1.785999920E-01 
        60  3.495651588E-02  1.281329458E-01  1.145394580E-01  1.076955745E+05  2.628111944E+02  3.443433876E+02  2.952798133E+02  1.877742176E+02  1.934523168E-01 
        61  3.433795015E-02  1.285471243E-01  1.174457346E-01  1.077004032E+05  2.679803607E+02  3.432217312E+02  2.933550653E+02  1.971568365E+02  1.947026432E-01 
        62  3.376061330E-02  1.289460490E-01  1.203607660E-01  1.077572723E+05  2.704292219E+02  3.429279160E+02  2.928523211E+02  2.000768745E+02  1.913907942E-01 
        63  3.331803132E-02  1.293309423E-01  1.232882868E-01  1.078086419E+05  2.718962935E+02  3.429345508E+02  2.928635596E+02  2.009500723E+02  1.873233939E-01 
        64  3.310586596E-02  1.296649637E-01  1.262581306E-01  1.077924653E+05  2.729868460E+02  3.429792559E+02  2.929399621E+02  2.013630331E+02  1.840091598E-01 
        65  3.306639982E-02  1.299493947E-01  1.292495641E-01  1.077087808E+05  2.738609371E+02  3.429968969E+02  2.929700391E+02  2.017860845E+02  1.820585305E-01 
        66  3.322486525E-02  1.302097713E-01  1.322380794E-01  1.075788258E+05  2.747452367E+02  3.429612464E+02  2.929092098E+02  2.025915162E+02  1.815947317E-01 
        67  3.356462385E-02  1.304573038E-01  1.352130229E-01  1.074288839E+05  2.756800848E+02  3.428989363E+02  2.928027752E+02  2.036987578E+02  1.822365885E-01 
        68  3.400410102E-02  1.306751199E-01  1.381765647E-01  1.072465369E+05  2.766302977E+02  3.428214865E+02  2.926705425E+02  2.049596243E+02  1.832331561E-01 
        69  3.451963359E-02  1.308741206E-01  1.411278790E-01  1.070100009E+05  2.776348720E+02  3.427285109E+02  2.925117974E+02  2.064266572E+02  1.846850875E-01 
        70  3.508991352E-02  1.310576265E-01  1.440660380E-01  1.067341002E+05  2.787727323E+02  3.426069155E+02  2.923042905E+02  2.080562027E+02  1.859373436E-01 
        71  3.570211579E-02  1.312503676E-01  1.470000000E-01  1.063209932E+05  2.801191139E+02  3.424425964E+02  2.920249367E+02  2.100389290E+02  1.869424731E-01 
        72 -2.843361623E-02  1.708417341E-01 -4.258217492E-02  8.203230811E+04  1.837751760E+02  3.299695053E+02  2.711380739E+02  3.443118458E+02  1.007638589E+00 
        73 -2.838826984E-02  1.709653765E-01 -3.916427879E-02  8.199481232E+04  1.842362814E+02  3.299535303E+02  2.711118295E+02  3.446356249E+02  1.006650903E+00 
        74 -2.835908450E-02  1.711140563E-01 -3.574649433E-02  8.231310199E+04  1.838600931E+02  3.301512594E+02  2.714369345E+02  3.437414694E+02  1.006326855E+00 
        75 -2.838361088E-02  1.712589164E-01 -3.232950605E-02  8.300595874E+04  1.829512453E+02  3.305336971E+02  2.720662451E+02  3.423205671E+02  1.006911986E+00 
        76 -2.841360827E-02  1.714319125E-01 -2.891476756E-02  8.385540588E+04  1.812417469E+02  3.310359235E+02  2.728935151E+02  3.399304128E+02  1.008565629E+00 
        77 -2.833774301E-02  1.716334782E-01 -2.549995819E-02  8.446070126E+04  1.801166941E+02  3.313564289E+02  2.734221258E+02  3.387914189E+02  1.010475435E+00 
        78 -2.791452343E-02  1.719215161E-01 -2.212016887E-02  8.462918457E+04  1.794414845E+02  3.314510860E+02  2.735784054E+02  3.384196167E+02  1.012203909E+00 
        79 -2.700703325E-02  1.722886754E-01 -1.884820631E-02  8.428067896E+04  1.795864835E+02  3.312388277E+02  2.732281771E+02  3.398484936E+02  1.014210481E+00 
        80 -2.544395246E-02  1.727209334E-01 -1.584518523E-02  8.312094550E+04  1.814045084E+02  3.305682778E+02  2.721232443E+02  3.432386608E+02  1.013963343E+00 
        81 -2.351536464E-02  1.732363399E-01 -1.306823492E-02  8.108357228E+04  1.854271317E+02  3.294080341E+02  2.702167406E+02  3.491150805E+02  1.010871722E+00 
        82 -2.134527601E-02  1.737374909E-01 -1.047435973E-02  7.831791302E+04  1.918295697E+02  3.277956300E+02  2.675782605E+02  3.570630780E+02  1.004045567E+00 
        83 -1.897326710E-02  1.742189522E-01 -8.035177519E-03  7.534567068E+04  1.998272261E+02  3.259997439E+02  2.646544086E+02  3.657338127E+02  9.939254760E-01 
        84 -1.652827274E-02  1.746780172E-01 -5.688541800E-03  7.307754260E+04  2.067064929E+02  3.246000361E+02  2.623861728E+02  3.724115176E+02  9.841544777E-01 
        85 -1.397929867E-02  1.751251779E-01 -3.446989688E-03  7.251465320E+04  2.098243122E+02  3.242387085E+02  2.618019633E+02  3.743589082E+02  9.775539450E-01 
        86 -1.139011487E-02  1.755573757E-01 -1.256774906E-03  7.420559033E+04  2.085164232E+02  3.253111100E+02  2.635380592E+02  3.700951056E+02  9.731431603E-01 
        87 -8.734274343E-03  1.759085237E-01  8.667805443E-04  7.955296252E+04  2.018419054E+02  3.286045511E+02  2.689061527E+02  3.556516891E+02  9.676298546E-01 
        88 -6.073383534E-03  1.762548475E-01  2.984781313E-03  8.890989453E+04  1.907913544E+02  3.337451031E+02  2.773850422E+02  3.294779437E+02  9.613445187E-01 
        89 -3.359730182E-03  1.765819110E-01  5.053045394E-03  9.850862671E+04  1.757396593E+02  3.384688983E+02  2.852891105E+02  3.041500399E+02  9.802691182E-01 
        90 -6.741955509E-04  1.768270807E-01  7.130208361E-03  9.803798981E+04  1.637690130E+02  3.384889625E+02  2.853225655E+02  3.063009354E+02  1.025186798E+00 
        91  2.027043660E-03  1.770783858E-01  9.208570588E-03  7.948725952E+04  1.916218693E+02  3.282512930E+02  2.683267396E+02  3.562093246E+02  1.003583385E+00 
        92  4.731686997E-03  1.772422585E-01  1.127155269E-02  7.213122015E+04  2.147398970E+02  3.239666789E+02  2.613641809E+02  3.774240896E+02  9.668484797E-01 
        93  7.454465044E-03  1.773874983E-01  1.334309669E-02  7.269439288E+04  2.111686845E+02  3.242521337E+02  2.618247317E+02  3.763549353E+02  9.765486391E-01 
        94  1.015989937E-02  1.775222933E-01  1.545596277E-02  7.043160658E+04  2.172109280E+02  3.229887044E+02  2.597921904E+02  3.825373623E+02  9.692204832E-01 
        95  1.284858280E-02  1.775661421E-01  1.756817794E-02  6.708929691E+04  2.275903910E+02  3.208482941E+02  2.563618534E+02  3.918679004E+02  9.544792641E-01 
        96  1.551966693E-02  1.776138061E-01  1.970369132E-02  6.409611206E+04  2.370924878E+02  3.187131391E+02  2.529619219E+02  4.007465577E+02  9.423899641E-01 
        97  1.817410325E-02  1.776258069E-01  2.186017323E-02  6.166917969E+04  2.456886988E+02  3.169040251E+02  2.500966258E+02  4.082055354E+02  9.306172999E-01 
        98  2.080993586E-02  1.775631240E-01  2.403936301E-02  6.007183044E+04  2.526495709E+02  3.157793970E+02  2.483213744E+02  4.130346832E+02  9.185495060E-01 
        99  2.341570779E-02  1.774969016E-01  2.625394818E-02  5.979885779E+04  2.572723484E+02  3.156406584E+02  2.481038828E+02  4.142929049E+02  9.059451967E-01 
       100  2.600295182E-02  1.773818036E-01  2.848806157E-02  6.188424365E+04  2.578012819E+02  3.171740751E+02  2.505382471E+02  4.086347704E+02  8.914032802E-01 
       101  2.856627515E-02  1.771883875E-01  3.074502562E-02  6.760912720E+04  2.523377304E+02  3.211343079E+02  2.568745279E+02  3.922009478E+02  8.742472455E-01 
       102  3.110662233E-02  1.769811535E-01  3.302644514E-02  7.560025122E+04  2.452991095E+02  3.261893692E+02  2.650210457E+02  3.698894615E+02  8.518672269E-01 
       103  3.362247542E-02  1.767159818E-01  3.532849163E-02  8.131231360E+04  2.437369156E+02  3.295297861E+02  2.704321890E+02  3.542104578E+02  8.261858821E-01 
       104  3.610895472E-02  1.763647845E-01  3.765120331E-02  8.176333752E+04  2.497958589E+02  3.297182984E+02  2.707300358E+02  3.534565773E+02  8.043792155E-01 
       105  3.856497337E-02  1.759966372E-01  4.000321012E-02  7.935230554E+04  2.585777061E+02  3.283571210E+02  2.684980410E+02  3.609715463E+02  7.889273157E-01 
       106  4.103059304E-02  1.755360248E-01  4.234569910E-02  7.788524371E+04  2.649006754E+02  3.276584212E+02  2.673537991E+02  3.653319289E+02  7.758097910E-01 
       107  4.340106546E-02  1.750377176E-01  4.474435622E-02  7.943266353E+04  2.667854077E+02  3.287124897E+02  2.690810500E+02  3.610372536E+02  7.612909761E-01 
       108  4.575540032E-02  1.745445103E-01  4.717695363E-02  8.416353113E+04  2.639708469E+02  3.314652190E+02  2.736136220E+02  3.481609130E+02  7.471144227E-01 
       109  4.807037784E-02  1.739953488E-01  4.963532790E-02  9.035667139E+04  2.593240414E+02  3.347808647E+02  2.791131239E+02  3.309151096E+02  7.326653227E-01 
       110  5.034733117E-02  1.734133857E-01  5.212084081E-02  9.516952930E+04  2.575985889E+02  3.372061596E+02  2.831645603E+02  3.177341900E+02  7.164369337E-01 
       111  5.258765486E-02  1.728405975E-01  5.464144749E-02  9.827013086E+04  2.586782131E+02  3.387008915E+02  2.856790276E+02  3.099823170E+02  7.002584487E-01 
       112  5.479076840E-02  1.722430532E-01  5.718902978E-02  1.011794702E+05  2.591536360E+02  3.401372528E+02  2.881072826E+02  3.028475676E+02  6.875408515E-01 
       113  5.694737683E-02  1.716020731E-01  5.976586917E-02  1.043800419E+05  2.584757209E+02  3.417120357E+02  2.907809949E+02  2.941172271E+02  6.769670076E-01 
       114  5.911848447E-02  1.709340834E-01  6.233872565E-02  1.074483068E+05  2.575099399E+02  3.431906337E+02  2.933018569E+02  2.860989115E+02  6.688821552E-01 
       115  6.119351897E-02  1.703313828E-01  6.496775561E-02  1.100228005E+05  2.568512430E+02  3.443344812E+02  2.952603283E+02  2.785356507E+02  6.612438727E-01 
       116  6.319798910E-02  1.696485115E-01  6.765543605E-02  1.124172753E+05  2.560044360E+02  3.453652835E+02  2.970303564E+02  2.716060114E+02  6.553378748E-01 
       117  6.520189851E-02  1.689621155E-01  7.034628384E-02  1.152184399E+05  2.540939360E+02  3.465902853E+02  2.991413574E+02  2.644857893E+02  6.540885661E-01 
       118  6.717992039E-02  1.682884043E-01  7.305807409E-02  1.175985591E+05  2.522677794E+02  3.475948420E+02  3.008776131E+02  2.586335554E+02  6.546172034E-01 
       119  6.910755662E-02  1.675987334E-01  7.579818779E-02  1.189951941E+05  2.512298393E+02  3.481423583E+02  3.018261361E+02  2.550204649E+02  6.551387990E-01 
       120  7.101404689E-02  1.668389198E-01  7.852135391E-02  1.201464736E+05  2.477850809E+02  3.486806521E+02  3.027602870E+02  2.516907203E+02  6.656723348E-01 
