nodenumber     x-coordinate     y-coordinate     z-coordinate         pressure velocity-magnitude      sound-speed      temperature rel-velocity-magnitude relative-velocity-angle 
         1 -2.216901913E-02  1.039879580E-01 -4.300600202E-02  8.754703085E+04  1.539536981E+02  3.330490446E+02  2.762226373E+02  2.357987062E+02  8.594371041E-01 
         2 -2.197401757E-02  1.042260031E-01 -4.002397295E-02  8.746506778E+04  1.544333334E+02  3.330046858E+02  2.761490588E+02  2.363432013E+02  8.589223279E-01 
         3 -2.150271627E-02  1.045375264E-01 -3.708169353E-02  8.736297546E+04  1.550526327E+02  3.329489672E+02  2.760566435E+02  2.370132595E+02  8.581856652E-01 
         4 -2.072290556E-02  1.049359494E-01 -3.421635317E-02  8.724889844E+04  1.557381382E+02  3.328890533E+02  2.759572988E+02  2.377533848E+02  8.574056588E-01 
         5 -1.964621854E-02  1.053757771E-01 -3.145501365E-02  8.712485254E+04  1.564413471E+02  3.328257208E+02  2.758523073E+02  2.385074592E+02  8.566233106E-01 
         6 -1.833909717E-02  1.058829391E-01 -2.880182754E-02  8.697578857E+04  1.572179675E+02  3.327484179E+02  2.757241807E+02  2.394249206E+02  8.560629394E-01 
         7 -1.686396899E-02  1.064019756E-01 -2.624136390E-02  8.679783032E+04  1.580753365E+02  3.326538792E+02  2.755675421E+02  2.404431076E+02  8.554572295E-01 
         8 -1.524276490E-02  1.069101094E-01 -2.376908005E-02  8.659112219E+04  1.590610244E+02  3.325423179E+02  2.753827534E+02  2.415732837E+02  8.545902446E-01 
         9 -1.353040875E-02  1.074492491E-01 -2.136449246E-02  8.637485718E+04  1.602118773E+02  3.324253840E+02  2.751891043E+02  2.428239002E+02  8.533004774E-01 
        10 -1.175719847E-02  1.079385502E-01 -1.899452623E-02  8.620170471E+04  1.614206634E+02  3.323322120E+02  2.750348577E+02  2.438844681E+02  8.510673540E-01 
        11 -9.920451205E-03  1.084473482E-01 -1.667649769E-02  8.613872070E+04  1.625304435E+02  3.322976012E+02  2.749775931E+02  2.446007854E+02  8.481484405E-01 
        12 -8.053093039E-03  1.089314126E-01 -1.437870322E-02  8.626591068E+04  1.631215982E+02  3.323652132E+02  2.750894960E+02  2.444445494E+02  8.449373348E-01 
        13 -6.139911673E-03  1.093816015E-01 -1.211111235E-02  8.667131567E+04  1.626725368E+02  3.325840902E+02  2.754519453E+02  2.432341499E+02  8.436840363E-01 
        14 -4.213714023E-03  1.098625599E-01 -9.853315987E-03  8.742491064E+04  1.607029972E+02  3.329868050E+02  2.761194649E+02  2.407639456E+02  8.464929610E-01 
        15 -2.267252226E-03  1.102821410E-01 -7.616721013E-03  8.855356787E+04  1.564109249E+02  3.335940247E+02  2.771275311E+02  2.371942902E+02  8.585660942E-01 
        16 -3.058463972E-04  1.106716081E-01 -5.380345181E-03  8.952541504E+04  1.494202957E+02  3.340756292E+02  2.779284410E+02  2.340110435E+02  8.871244695E-01 
        17  1.649896870E-03  1.110991589E-01 -3.144821902E-03  8.727577502E+04  1.473400515E+02  3.328262730E+02  2.758547294E+02  2.439311862E+02  9.328697398E-01 
        18  3.605378217E-03  1.114680886E-01 -8.997268064E-04  7.604365784E+04  1.741293337E+02  3.264477525E+02  2.653820691E+02  2.845929589E+02  9.417039733E-01 
        19  5.548952344E-03  1.118349081E-01  1.356589372E-03  7.007367438E+04  2.076992289E+02  3.228390760E+02  2.595485523E+02  3.061402249E+02  8.478013063E-01 
        20  7.472030685E-03  1.121892539E-01  3.633809071E-03  7.262751357E+04  2.119367483E+02  3.245227884E+02  2.622653831E+02  2.982096901E+02  7.917136783E-01 
        21  9.366594022E-03  1.125505666E-01  5.932977735E-03  7.624603577E+04  2.087494431E+02  3.267185223E+02  2.658251476E+02  2.854109690E+02  7.580413008E-01 
        22  1.122147558E-02  1.129077905E-01  8.263617067E-03  7.868430138E+04  2.087118287E+02  3.280917144E+02  2.680628939E+02  2.769611435E+02  7.266085700E-01 
        23  1.303284284E-02  1.132507638E-01  1.062953057E-02  8.028036490E+04  2.112998408E+02  3.289425032E+02  2.694540265E+02  2.717569139E+02  6.945209997E-01 
        24  1.479928419E-02  1.136234762E-01  1.303021626E-02  8.146891994E+04  2.158066316E+02  3.296017085E+02  2.705351496E+02  2.681972427E+02  6.587572882E-01 
        25  1.649617427E-02  1.139938279E-01  1.547769530E-02  8.255667053E+04  2.207518859E+02  3.302103364E+02  2.715352080E+02  2.650776417E+02  6.224575653E-01 
        26  1.811807173E-02  1.143837002E-01  1.797032872E-02  8.337026050E+04  2.261076765E+02  3.306665421E+02  2.722854519E+02  2.629679356E+02  5.878647584E-01 
        27  1.968166241E-02  1.148013513E-01  2.049621310E-02  8.356290674E+04  2.329472573E+02  3.307902911E+02  2.724890165E+02  2.631190622E+02  5.538068749E-01 
        28  2.119101764E-02  1.152299366E-01  2.305322148E-02  8.306050842E+04  2.414462811E+02  3.305893415E+02  2.721579713E+02  2.655035481E+02  5.190714079E-01 
        29  2.266338778E-02  1.156643914E-01  2.563116057E-02  8.241816949E+04  2.502750491E+02  3.302565236E+02  2.716104144E+02  2.686166950E+02  4.853671906E-01 
        30  2.408077791E-02  1.161159634E-01  2.823658064E-02  8.186204218E+04  2.584682515E+02  3.299895668E+02  2.711714067E+02  2.714593508E+02  4.542375542E-01 
        31  2.544088325E-02  1.165921105E-01  3.086849856E-02  8.131324829E+04  2.665713265E+02  3.296850667E+02  2.706713219E+02  2.743733811E+02  4.241449675E-01 
        32  2.674433127E-02  1.170738851E-01  3.352942364E-02  8.075073267E+04  2.745843191E+02  3.293765492E+02  2.701650636E+02  2.773350778E+02  3.948949031E-01 
        33  2.797950643E-02  1.175445507E-01  3.622298897E-02  8.021645078E+04  2.823910555E+02  3.291302650E+02  2.697612895E+02  2.800756658E+02  3.659497967E-01 
        34  2.916313541E-02  1.180056499E-01  3.893937175E-02  7.991288260E+04  2.895763881E+02  3.290094788E+02  2.695637346E+02  2.820078752E+02  3.371892076E-01 
        35  3.031249539E-02  1.184785399E-01  4.167042727E-02  8.007355588E+04  2.953675689E+02  3.290530918E+02  2.696355172E+02  2.824888759E+02  3.102377877E-01 
        36  3.139929926E-02  1.189405785E-01  4.442941843E-02  8.039551312E+04  3.006517968E+02  3.291935780E+02  2.698657024E+02  2.823610581E+02  2.835171901E-01 
        37  3.242013936E-02  1.193808800E-01  4.721660669E-02  8.095890061E+04  3.056750646E+02  3.293536663E+02  2.701279906E+02  2.814179163E+02  2.546982709E-01 
        38  3.340677803E-02  1.198011670E-01  5.002067675E-02  8.218157620E+04  3.085630255E+02  3.299445257E+02  2.710979856E+02  2.781803302E+02  2.279591101E-01 
        39  3.430413654E-02  1.201853153E-01  5.285529857E-02  8.372813379E+04  3.102601395E+02  3.308713770E+02  2.726237164E+02  2.735859365E+02  2.020785343E-01 
        40  3.515433510E-02  1.205874318E-01  5.570324370E-02  8.559482129E+04  3.107694645E+02  3.319357529E+02  2.743807926E+02  2.679610443E+02  1.785002332E-01 
        41  3.592907297E-02  1.209644065E-01  5.857535950E-02  8.770192017E+04  3.098840709E+02  3.330842714E+02  2.762833467E+02  2.613603387E+02  1.587616308E-01 
        42  3.664355424E-02  1.213334730E-01  6.146049591E-02  8.993908923E+04  3.075627007E+02  3.342591128E+02  2.782357898E+02  2.542023821E+02  1.450390664E-01 
        43  3.727845098E-02  1.217084379E-01  6.437276718E-02  9.209831421E+04  3.043701658E+02  3.354063931E+02  2.801483870E+02  2.473194075E+02  1.377933519E-01 
        44  3.781448665E-02  1.220744111E-01  6.730672953E-02  9.392153735E+04  3.010763769E+02  3.363738375E+02  2.817664099E+02  2.416220298E+02  1.365042264E-01 
        45  3.826762164E-02  1.224563704E-01  7.025293559E-02  9.521690784E+04  2.982990351E+02  3.370816865E+02  2.829532375E+02  2.376363859E+02  1.395973223E-01 
        46  3.856443464E-02  1.228195695E-01  7.317567491E-02  9.598956250E+04  2.960686951E+02  3.376077576E+02  2.838369522E+02  2.349756241E+02  1.448295154E-01 
        47  3.882754171E-02  1.231963568E-01  7.616928387E-02  9.638305655E+04  2.943430599E+02  3.382386105E+02  2.848998238E+02  2.332949083E+02  1.515534681E-01 
        48  3.896508106E-02  1.235573809E-01  7.913505459E-02  9.650338086E+04  2.908955460E+02  3.391809616E+02  2.865014610E+02  2.281582794E+02  1.570407338E-01 
        49  3.903512947E-02  1.239238609E-01  8.213137167E-02  9.646968506E+04  2.826828542E+02  3.409490626E+02  2.895189240E+02  2.142538306E+02  1.639025724E-01 
        50  3.900153017E-02  1.243001337E-01  8.510504302E-02  9.634398737E+04  2.688578919E+02  3.438365058E+02  2.944569674E+02  1.888981286E+02  1.651200466E-01 
        51  3.889299026E-02  1.246700891E-01  8.806950082E-02  9.630645319E+04  2.528043678E+02  3.473421409E+02  3.004962463E+02  1.489591575E+02  1.453607854E-01 
        52  3.870303970E-02  1.250405990E-01  9.105247242E-02  9.634036182E+04  2.435028758E+02  3.501720924E+02  3.053864355E+02  1.115563400E+02  6.691332042E-02 
        53  3.847530202E-02  1.253810613E-01  9.402032493E-02  9.685563980E+04  2.415528079E+02  3.519184318E+02  3.084332812E+02  7.848048943E+01 -2.079844069E-01 
        54  3.809583015E-02  1.257752167E-01  9.695318516E-02  9.888919141E+04  2.402105522E+02  3.531633797E+02  3.106063538E+02  5.222366667E+01 -7.227738760E-01 
        55  3.767199372E-02  1.261489404E-01  9.992435767E-02  1.015297231E+05  2.396634965E+02  3.537292385E+02  3.115938277E+02  4.608191860E+01 -6.831545476E-01 
        56  3.723780727E-02  1.265196365E-01  1.028569506E-01  1.041107638E+05  2.375660481E+02  3.535411839E+02  3.112627228E+02  5.979850249E+01 -2.424435557E-01 
        57  3.672955052E-02  1.269046997E-01  1.057947981E-01  1.058245723E+05  2.379465389E+02  3.520847230E+02  3.087097116E+02  9.142290354E+01  1.141663908E-02 
        58  3.615520807E-02  1.273091289E-01  1.087154776E-01  1.068290046E+05  2.436687479E+02  3.494391813E+02  3.040942640E+02  1.314740820E+02  1.312454757E-01 
        59  3.556812424E-02  1.277144368E-01  1.116309472E-01  1.074441925E+05  2.539949336E+02  3.464947512E+02  2.989878561E+02  1.672182934E+02  1.808892327E-01 
        60  3.495651588E-02  1.281329458E-01  1.145394580E-01  1.077940166E+05  2.632949367E+02  3.443444967E+02  2.952812452E+02  1.887289767E+02  1.936762910E-01 
        61  3.433795015E-02  1.285471243E-01  1.174457346E-01  1.078192723E+05  2.682624576E+02  3.432619667E+02  2.934238086E+02  1.973682795E+02  1.936861149E-01 
        62  3.376061330E-02  1.289460490E-01  1.203607660E-01  1.077653887E+05  2.703354390E+02  3.429275599E+02  2.928517411E+02  1.998092077E+02  1.910017296E-01 
        63  3.331803132E-02  1.293309423E-01  1.232882868E-01  1.077938032E+05  2.716666505E+02  3.429230365E+02  2.928439039E+02  2.006825219E+02  1.877725125E-01 
        64  3.310586596E-02  1.296649637E-01  1.262581306E-01  1.078051993E+05  2.727695961E+02  3.429817979E+02  2.929442925E+02  2.012368095E+02  1.848888876E-01 
        65  3.306639982E-02  1.299493947E-01  1.292495641E-01  1.077461988E+05  2.736534637E+02  3.430150874E+02  2.930011486E+02  2.017053989E+02  1.830379916E-01 
        66  3.322486525E-02  1.302097713E-01  1.322380794E-01  1.076469612E+05  2.746108511E+02  3.429886800E+02  2.929560416E+02  2.025227976E+02  1.821668816E-01 
        67  3.356462385E-02  1.304573038E-01  1.352130229E-01  1.075222600E+05  2.755969468E+02  3.429372954E+02  2.928682541E+02  2.036245507E+02  1.824765506E-01 
        68  3.400410102E-02  1.306751199E-01  1.381765647E-01  1.073395920E+05  2.765701816E+02  3.428663177E+02  2.927470608E+02  2.048999009E+02  1.833830897E-01 
        69  3.451963359E-02  1.308741206E-01  1.411278790E-01  1.070929078E+05  2.776680155E+02  3.427616968E+02  2.925684233E+02  2.064301608E+02  1.844972612E-01 
        70  3.508991352E-02  1.310576265E-01  1.440660380E-01  1.067850222E+05  2.788262854E+02  3.426304407E+02  2.923443956E+02  2.080614929E+02  1.856372890E-01 
        71  3.570211579E-02  1.312503676E-01  1.470000000E-01  1.063208965E+05  2.802645912E+02  3.424251480E+02  2.919949875E+02  2.102429676E+02  1.868038774E-01 
        72 -2.843361623E-02  1.708417341E-01 -4.258217492E-02  8.203042261E+04  1.837604656E+02  3.299721804E+02  2.711424484E+02  3.442997713E+02  1.007667348E+00 
        73 -2.838826984E-02  1.709653765E-01 -3.916427879E-02  8.199356158E+04  1.842521608E+02  3.299479876E+02  2.711027384E+02  3.446540928E+02  1.006630648E+00 
        74 -2.835908450E-02  1.711140563E-01 -3.574649433E-02  8.231175867E+04  1.838525606E+02  3.301498737E+02  2.714346528E+02  3.436941140E+02  1.006270240E+00 
        75 -2.838361088E-02  1.712589164E-01 -3.232950605E-02  8.300663867E+04  1.829218960E+02  3.305360346E+02  2.720700903E+02  3.423603506E+02  1.007083021E+00 
        76 -2.841360827E-02  1.714319125E-01 -2.891476756E-02  8.384734607E+04  1.812272406E+02  3.310330591E+02  2.728888397E+02  3.398592329E+02  1.008495444E+00 
        77 -2.833774301E-02  1.716334782E-01 -2.549995819E-02  8.444698676E+04  1.801322550E+02  3.313497341E+02  2.734111030E+02  3.389008886E+02  1.010607390E+00 
        78 -2.791452343E-02  1.719215161E-01 -2.212016887E-02  8.460991748E+04  1.794918909E+02  3.314424896E+02  2.735642157E+02  3.384018154E+02  1.012006622E+00 
        79 -2.700703325E-02  1.722886754E-01 -1.884820631E-02  8.427964697E+04  1.796143265E+02  3.312492580E+02  2.732453861E+02  3.397662773E+02  1.013975859E+00 
        80 -2.544395246E-02  1.727209334E-01 -1.584518523E-02  8.311173706E+04  1.814724897E+02  3.305632784E+02  2.721150653E+02  3.433865323E+02  1.013992419E+00 
        81 -2.351536464E-02  1.732363399E-01 -1.306823492E-02  8.110408824E+04  1.854155169E+02  3.294051449E+02  2.702120245E+02  3.490866578E+02  1.010863636E+00 
        82 -2.134527601E-02  1.737374909E-01 -1.047435973E-02  7.836638707E+04  1.917865634E+02  3.278138701E+02  2.676080542E+02  3.569656491E+02  1.004002114E+00 
        83 -1.897326710E-02  1.742189522E-01 -8.035177519E-03  7.541010086E+04  1.994905589E+02  3.260533084E+02  2.647413763E+02  3.655697130E+02  9.947345820E-01 
        84 -1.652827274E-02  1.746780172E-01 -5.688541800E-03  7.313641901E+04  2.066074307E+02  3.246306987E+02  2.624357667E+02  3.724990578E+02  9.846810605E-01 
        85 -1.397929867E-02  1.751251779E-01 -3.446989688E-03  7.248883850E+04  2.098752542E+02  3.242152433E+02  2.617642579E+02  3.744036407E+02  9.775248319E-01 
        86 -1.139011487E-02  1.755573757E-01 -1.256774906E-03  7.417765051E+04  2.084932435E+02  3.252952342E+02  2.635128937E+02  3.697878361E+02  9.726685416E-01 
        87 -8.734274343E-03  1.759085237E-01  8.667805443E-04  7.946042200E+04  2.023182040E+02  3.285218239E+02  2.687722876E+02  3.551138775E+02  9.653756814E-01 
        88 -6.073383534E-03  1.762548475E-01  2.984781313E-03  8.887431433E+04  1.911823949E+02  3.336700058E+02  2.772612731E+02  3.303082888E+02  9.619191862E-01 
        89 -3.359730182E-03  1.765819110E-01  5.053045394E-03  9.847713025E+04  1.753564346E+02  3.384814494E+02  2.853103925E+02  3.035811522E+02  9.809274245E-01 
        90 -6.741955509E-04  1.768270807E-01  7.130208361E-03  9.832110050E+04  1.645038209E+02  3.385069145E+02  2.853527564E+02  3.059278901E+02  1.021572129E+00 
        91  2.027043660E-03  1.770783858E-01  9.208570588E-03  7.957690839E+04  1.908562109E+02  3.283543925E+02  2.684962108E+02  3.561868693E+02  1.006268237E+00 
        92  4.731686997E-03  1.772422585E-01  1.127155269E-02  7.217905940E+04  2.145008754E+02  3.239938073E+02  2.614086381E+02  3.765193985E+02  9.658448163E-01 
        93  7.454465044E-03  1.773874983E-01  1.334309669E-02  7.280994577E+04  2.110061740E+02  3.242299202E+02  2.617887977E+02  3.760784482E+02  9.765376614E-01 
        94  1.015989937E-02  1.775222933E-01  1.545596277E-02  7.047726189E+04  2.176501970E+02  3.228946483E+02  2.596409159E+02  3.830268290E+02  9.688024137E-01 
        95  1.284858280E-02  1.775661421E-01  1.756817794E-02  6.709180698E+04  2.280086774E+02  3.208217309E+02  2.563191470E+02  3.921248422E+02  9.536363091E-01 
        96  1.551966693E-02  1.776138061E-01  1.970369132E-02  6.410191974E+04  2.370291822E+02  3.187854416E+02  2.530763309E+02  4.006460366E+02  9.423824335E-01 
        97  1.817410325E-02  1.776258069E-01  2.186017323E-02  6.165718127E+04  2.454657729E+02  3.169637647E+02  2.501912007E+02  4.081223154E+02  9.311650218E-01 
        98  2.080993586E-02  1.775631240E-01  2.403936301E-02  6.004027710E+04  2.524695158E+02  3.157698655E+02  2.483066497E+02  4.128841257E+02  9.187943079E-01 
        99  2.341570779E-02  1.774969016E-01  2.625394818E-02  5.978001526E+04  2.571223617E+02  3.156107168E+02  2.480567913E+02  4.141782503E+02  9.061944615E-01 
       100  2.600295182E-02  1.773818036E-01  2.848806157E-02  6.184647681E+04  2.579202662E+02  3.171327324E+02  2.504735146E+02  4.088087254E+02  8.914004676E-01 
       101  2.856627515E-02  1.771883875E-01  3.074502562E-02  6.754010693E+04  2.524558544E+02  3.211399050E+02  2.568861046E+02  3.924789534E+02  8.744623065E-01 
       102  3.110662233E-02  1.769811535E-01  3.302644514E-02  7.553899390E+04  2.452934361E+02  3.262552471E+02  2.651291380E+02  3.699150467E+02  8.520444594E-01 
       103  3.362247542E-02  1.767159818E-01  3.532849163E-02  8.130657434E+04  2.440178752E+02  3.295572128E+02  2.704770689E+02  3.541615257E+02  8.252875824E-01 
       104  3.610895472E-02  1.763647845E-01  3.765120331E-02  8.181226111E+04  2.498280206E+02  3.297263808E+02  2.707433863E+02  3.533571329E+02  8.041497432E-01 
       105  3.856497337E-02  1.759966372E-01  4.000321012E-02  7.939255936E+04  2.579551231E+02  3.283900075E+02  2.685519297E+02  3.604708104E+02  7.900752970E-01 
       106  4.103059304E-02  1.755360248E-01  4.234569910E-02  7.790005386E+04  2.643549739E+02  3.276525182E+02  2.673440968E+02  3.650383751E+02  7.770881398E-01 
       107  4.340106546E-02  1.750377176E-01  4.474435622E-02  7.942272473E+04  2.666531980E+02  3.286304292E+02  2.689464650E+02  3.611948138E+02  7.620466445E-01 
       108  4.575540032E-02  1.745445103E-01  4.717695363E-02  8.408689258E+04  2.640963354E+02  3.313606024E+02  2.734408007E+02  3.485576005E+02  7.473866250E-01 
       109  4.807037784E-02  1.739953488E-01  4.963532790E-02  9.027673364E+04  2.596812782E+02  3.346998549E+02  2.789784479E+02  3.314558496E+02  7.323573828E-01 
       110  5.034733117E-02  1.734133857E-01  5.212084081E-02  9.516779248E+04  2.576539936E+02  3.372270584E+02  2.832002449E+02  3.178708992E+02  7.165039852E-01 
       111  5.258765486E-02  1.728405975E-01  5.464144749E-02  9.823792188E+04  2.584742317E+02  3.387302437E+02  2.857283459E+02  3.097244778E+02  7.005744092E-01 
       112  5.479076840E-02  1.722430532E-01  5.718902978E-02  1.010357493E+05  2.590094614E+02  3.400687351E+02  2.879910402E+02  3.026353836E+02  6.877363902E-01 
       113  5.694737683E-02  1.716020731E-01  5.976586917E-02  1.042142804E+05  2.585147901E+02  3.415789068E+02  2.905543346E+02  2.940325644E+02  6.767275776E-01 
       114  5.911848447E-02  1.709340834E-01  6.233872565E-02  1.073887664E+05  2.574720905E+02  3.431299028E+02  2.931982716E+02  2.861125486E+02  6.690539027E-01 
       115  6.119351897E-02  1.703313828E-01  6.496775561E-02  1.100908301E+05  2.568480301E+02  3.443608570E+02  2.953056231E+02  2.787615838E+02  6.615687758E-01 
       116  6.319798910E-02  1.696485115E-01  6.765543605E-02  1.126305005E+05  2.556631942E+02  3.454801908E+02  2.972281203E+02  2.715948677E+02  6.566731948E-01 
       117  6.520189851E-02  1.689621155E-01  7.034628384E-02  1.156022305E+05  2.535988073E+02  3.467239027E+02  2.993720703E+02  2.640313511E+02  6.554935407E-01 
       118  6.717992039E-02  1.682884043E-01  7.305807409E-02  1.173447866E+05  2.522161007E+02  3.475132160E+02  3.007363138E+02  2.591311979E+02  6.553901359E-01 
       119  6.910755662E-02  1.675987334E-01  7.579818779E-02  1.188671351E+05  2.512699454E+02  3.480617180E+02  3.016863074E+02  2.553028696E+02  6.553078014E-01 
       120  7.101404689E-02  1.668389198E-01  7.852135391E-02  1.199395344E+05  2.482843930E+02  3.485763164E+02  3.025791204E+02  2.520990996E+02  6.640520371E-01 
