nodenumber     x-coordinate     y-coordinate     z-coordinate         pressure velocity-magnitude      sound-speed      temperature rel-velocity-magnitude relative-velocity-angle 
         1 -2.216901913E-02  1.039879580E-01 -4.300600202E-02  8.752817297E+04  1.537898648E+02  3.330617132E+02  2.762437589E+02  2.354935817E+02  8.593310253E-01 
         2 -2.197401757E-02  1.042260031E-01 -4.002397295E-02  8.746729950E+04  1.544748120E+02  3.330011560E+02  2.761432238E+02  2.362572131E+02  8.584246223E-01 
         3 -2.150271627E-02  1.045375264E-01 -3.708169353E-02  8.734474884E+04  1.551831003E+02  3.329347463E+02  2.760330372E+02  2.376270009E+02  8.597326693E-01 
         4 -2.072290556E-02  1.049359494E-01 -3.421635317E-02  8.721003955E+04  1.554422266E+02  3.329018650E+02  2.759786000E+02  2.372471375E+02  8.574718451E-01 
         5 -1.964621854E-02  1.053757771E-01 -3.145501365E-02  8.707624536E+04  1.563570962E+02  3.328137512E+02  2.758325334E+02  2.383417892E+02  8.566684630E-01 
         6 -1.833909717E-02  1.058829391E-01 -2.880182754E-02  8.697088037E+04  1.573342214E+02  3.327318726E+02  2.756968565E+02  2.396043811E+02  8.562554587E-01 
         7 -1.686396899E-02  1.064019756E-01 -2.624136390E-02  8.681000439E+04  1.579644156E+02  3.326626558E+02  2.755822706E+02  2.403187165E+02  8.558326345E-01 
         8 -1.524276490E-02  1.069101094E-01 -2.376908005E-02  8.661057141E+04  1.591468530E+02  3.325289059E+02  2.753606248E+02  2.416598468E+02  8.544521946E-01 
         9 -1.353040875E-02  1.074492491E-01 -2.136449246E-02  8.642363831E+04  1.600709908E+02  3.324468293E+02  2.752246795E+02  2.427358716E+02  8.537454959E-01 
        10 -1.175719847E-02  1.079385502E-01 -1.899452623E-02  8.624284631E+04  1.614473091E+02  3.323312616E+02  2.750333478E+02  2.439654849E+02  8.511648895E-01 
        11 -9.920451205E-03  1.084473482E-01 -1.667649769E-02  8.614994910E+04  1.625884681E+02  3.322842343E+02  2.749555545E+02  2.447094007E+02  8.481452309E-01 
        12 -8.053093039E-03  1.089314126E-01 -1.437870322E-02  8.628246823E+04  1.631499633E+02  3.323615717E+02  2.750837160E+02  2.443943567E+02  8.446655171E-01 
        13 -6.139911673E-03  1.093816015E-01 -1.211111235E-02  8.673613135E+04  1.621512761E+02  3.326527081E+02  2.755656385E+02  2.429507027E+02  8.457336091E-01 
        14 -4.213714023E-03  1.098625599E-01 -9.853315987E-03  8.753473877E+04  1.603514881E+02  3.330560226E+02  2.762344513E+02  2.404772682E+02  8.474680111E-01 
        15 -2.267252226E-03  1.102821410E-01 -7.616721013E-03  8.859690918E+04  1.563722868E+02  3.335851803E+02  2.771129494E+02  2.369771471E+02  8.581553809E-01 
        16 -3.058463972E-04  1.106716081E-01 -5.380345181E-03  8.919056982E+04  1.504962816E+02  3.338801603E+02  2.776033554E+02  2.347334728E+02  8.841210920E-01 
        17  1.649896870E-03  1.110991589E-01 -3.144821902E-03  8.742473315E+04  1.459011664E+02  3.329994602E+02  2.761422267E+02  2.420684271E+02  9.357678387E-01 
        18  3.605378217E-03  1.114680886E-01 -8.997268064E-04  7.564187134E+04  1.784994340E+02  3.258959136E+02  2.644871206E+02  2.891225514E+02  9.368199855E-01 
        19  5.548952344E-03  1.118349081E-01  1.356589372E-03  7.005418945E+04  2.109087967E+02  3.225545237E+02  2.590937641E+02  3.093680000E+02  8.448460647E-01 
        20  7.472030685E-03  1.121892539E-01  3.633809071E-03  7.305205116E+04  2.116738718E+02  3.247786540E+02  2.626822576E+02  2.971899943E+02  7.892150003E-01 
        21  9.366594022E-03  1.125505666E-01  5.932977735E-03  7.659924640E+04  2.063441651E+02  3.272397108E+02  2.666744809E+02  2.810038352E+02  7.538714726E-01 
        22  1.122147558E-02  1.129077905E-01  8.263617067E-03  7.895508784E+04  2.056892211E+02  3.287181203E+02  2.690889892E+02  2.718313024E+02  7.227936133E-01 
        23  1.303284284E-02  1.132507638E-01  1.062953057E-02  8.053736019E+04  2.085460693E+02  3.295977773E+02  2.705308882E+02  2.685245964E+02  6.968230065E-01 
        24  1.479928419E-02  1.136234762E-01  1.303021626E-02  8.174393095E+04  2.138939999E+02  3.301343507E+02  2.714121332E+02  2.657678745E+02  6.607859884E-01 
        25  1.649617427E-02  1.139938279E-01  1.547769530E-02  8.281632098E+04  2.191465793E+02  3.305909340E+02  2.721628213E+02  2.628038878E+02  6.238033161E-01 
        26  1.811807173E-02  1.143837002E-01  1.797032872E-02  8.354911743E+04  2.246320682E+02  3.308932929E+02  2.726600261E+02  2.613685679E+02  5.909168841E-01 
        27  1.968166241E-02  1.148013513E-01  2.049621310E-02  8.362422736E+04  2.316900742E+02  3.308967493E+02  2.726651504E+02  2.623114431E+02  5.583240348E-01 
        28  2.119101764E-02  1.152299366E-01  2.305322148E-02  8.306059189E+04  2.409380090E+02  3.305166641E+02  2.720393057E+02  2.657825769E+02  5.228849309E-01 
        29  2.266338778E-02  1.156643914E-01  2.563116057E-02  8.242383685E+04  2.494088434E+02  3.301859343E+02  2.714950006E+02  2.682978443E+02  4.888047213E-01 
        30  2.408077791E-02  1.161159634E-01  2.823658064E-02  8.188610181E+04  2.572582111E+02  3.299107270E+02  2.710425460E+02  2.703443978E+02  4.566606297E-01 
        31  2.544088325E-02  1.165921105E-01  3.086849856E-02  8.131133582E+04  2.658773592E+02  3.294557662E+02  2.702963727E+02  2.738263059E+02  4.260547031E-01 
        32  2.674433127E-02  1.170738851E-01  3.352942364E-02  8.071120190E+04  2.739987710E+02  3.290992007E+02  2.697117116E+02  2.771873360E+02  3.975875978E-01 
        33  2.797950643E-02  1.175445507E-01  3.622298897E-02  8.017216217E+04  2.811034255E+02  3.289702028E+02  2.694996254E+02  2.792414308E+02  3.694806444E-01 
        34  2.916313541E-02  1.180056499E-01  3.893937175E-02  7.987461148E+04  2.881672916E+02  3.288928335E+02  2.693721900E+02  2.806739882E+02  3.393311272E-01 
        35  3.031249539E-02  1.184785399E-01  4.167042727E-02  7.998812994E+04  2.952264378E+02  3.288049119E+02  2.692282410E+02  2.821767344E+02  3.097043391E-01 
        36  3.139929926E-02  1.189405785E-01  4.442941843E-02  8.026480557E+04  3.008176961E+02  3.290144051E+02  2.695716270E+02  2.821275408E+02  2.817994170E-01 
        37  3.242013936E-02  1.193808800E-01  4.721660669E-02  8.081239699E+04  3.058853929E+02  3.294192210E+02  2.702353318E+02  2.810332892E+02  2.520774165E-01 
        38  3.340677803E-02  1.198011670E-01  5.002067675E-02  8.212904425E+04  3.087505183E+02  3.302224944E+02  2.715559814E+02  2.773534590E+02  2.236368986E-01 
        39  3.430413654E-02  1.201853153E-01  5.285529857E-02  8.389874023E+04  3.099169445E+02  3.313160553E+02  2.733581495E+02  2.721086216E+02  1.980278483E-01 
        40  3.515433510E-02  1.205874318E-01  5.570324370E-02  8.605278955E+04  3.099653397E+02  3.325376759E+02  2.753776817E+02  2.658697929E+02  1.744994102E-01 
        41  3.592907297E-02  1.209644065E-01  5.857535950E-02  8.846357373E+04  3.087169943E+02  3.338157749E+02  2.774985371E+02  2.590960326E+02  1.561352042E-01 
        42  3.664355424E-02  1.213334730E-01  6.146049591E-02  9.093067493E+04  3.062089505E+02  3.350002379E+02  2.794708943E+02  2.521664696E+02  1.444702167E-01 
        43  3.727845098E-02  1.217084379E-01  6.437276718E-02  9.314890649E+04  3.027473078E+02  3.360008955E+02  2.811422501E+02  2.454834995E+02  1.397672729E-01 
        44  3.781448665E-02  1.220744111E-01  6.730672953E-02  9.482129663E+04  2.989953823E+02  3.367904110E+02  2.824645309E+02  2.402246361E+02  1.432616576E-01 
        45  3.826762164E-02  1.224563704E-01  7.025293559E-02  9.587696606E+04  2.957073941E+02  3.373438873E+02  2.833931286E+02  2.365083442E+02  1.507377663E-01 
        46  3.856443464E-02  1.228195695E-01  7.317567491E-02  9.646830859E+04  2.936366501E+02  3.376574249E+02  2.839201584E+02  2.343150558E+02  1.571637429E-01 
        47  3.882754171E-02  1.231963568E-01  7.616928387E-02  9.672184351E+04  2.913988827E+02  3.382125645E+02  2.848564208E+02  2.316610321E+02  1.634165086E-01 
        48  3.896508106E-02  1.235573809E-01  7.913505459E-02  9.668762305E+04  2.864668579E+02  3.393566589E+02  2.868022385E+02  2.236460724E+02  1.687197648E-01 
        49  3.903512947E-02  1.239238609E-01  8.213137167E-02  9.658257959E+04  2.748449779E+02  3.417158458E+02  2.908346479E+02  2.032650470E+02  1.816647761E-01 
        50  3.900153017E-02  1.243001337E-01  8.510504302E-02  9.639797449E+04  2.565618454E+02  3.454357077E+02  2.972074540E+02  1.679622949E+02  1.888278120E-01 
        51  3.889299026E-02  1.246700891E-01  8.806950082E-02  9.636426709E+04  2.397551017E+02  3.493288677E+02  3.039299562E+02  1.203017349E+02  1.583049961E-01 
        52  3.870303970E-02  1.250405990E-01  9.105247242E-02  9.643735645E+04  2.335388689E+02  3.520936031E+02  3.087287178E+02  7.848425388E+01  1.481694973E-02 
        53  3.847530202E-02  1.253810613E-01  9.402032493E-02  9.715377719E+04  2.336257973E+02  3.533430128E+02  3.109182378E+02  4.478680709E+01 -4.287906836E-01 
        54  3.809583015E-02  1.257752167E-01  9.695318516E-02  9.723650293E+04  2.273274422E+02  3.534205208E+02  3.110503922E+02  4.046096706E+01 -8.347356822E-01 
        55  3.767199372E-02  1.261489404E-01  9.992435767E-02  9.790172998E+04  2.394299040E+02  3.525984840E+02  3.096042047E+02  4.785622680E+01 -1.707625404E+00 
        56  3.723780727E-02  1.265196365E-01  1.028569506E-01  1.002781343E+05  2.506681784E+02  3.524032252E+02  3.092609398E+02  6.047423220E+01 -1.326375532E+00 
        57  3.672955052E-02  1.269046997E-01  1.057947981E-01  1.017994620E+05  2.490044429E+02  3.512312999E+02  3.072080932E+02  1.043769631E+02 -1.884122302E-01 
        58  3.615520807E-02  1.273091289E-01  1.087154776E-01  1.028071257E+05  2.394009304E+02  3.487718620E+02  3.029243479E+02  1.513453984E+02  2.355849640E-01 
        59  3.556812424E-02  1.277144368E-01  1.116309472E-01  1.044496469E+05  2.454849861E+02  3.451817849E+02  2.967209160E+02  1.843031662E+02  2.955909215E-01 
        60  3.495651588E-02  1.281329458E-01  1.145394580E-01  1.062277520E+05  2.536975522E+02  3.431087570E+02  2.931645441E+02  1.963796268E+02  2.813156191E-01 
        61  3.433795015E-02  1.285471243E-01  1.174457346E-01  1.075573219E+05  2.566094599E+02  3.428008037E+02  2.926362491E+02  1.942833934E+02  2.565328593E-01 
        62  3.376061330E-02  1.289460490E-01  1.203607660E-01  1.081718008E+05  2.597039661E+02  3.430870993E+02  2.931244829E+02  1.905999328E+02  2.254376928E-01 
        63  3.331803132E-02  1.293309423E-01  1.232882868E-01  1.082032168E+05  2.648349154E+02  3.433285444E+02  2.935370166E+02  1.936038550E+02  2.052660011E-01 
        64  3.310586596E-02  1.296649637E-01  1.262581306E-01  1.080270479E+05  2.693889358E+02  3.433421025E+02  2.935605147E+02  1.989231613E+02  1.977104390E-01 
        65  3.306639982E-02  1.299493947E-01  1.292495641E-01  1.078998681E+05  2.715099910E+02  3.432602756E+02  2.934205836E+02  2.008641699E+02  1.934458938E-01 
        66  3.322486525E-02  1.302097713E-01  1.322380794E-01  1.077824950E+05  2.740309181E+02  3.428274541E+02  2.926812936E+02  2.018453640E+02  1.836180790E-01 
        67  3.356462385E-02  1.304573038E-01  1.352130229E-01  1.076662244E+05  2.737828301E+02  3.427947117E+02  2.926253236E+02  2.030203655E+02  1.915435068E-01 
        68  3.400410102E-02  1.306751199E-01  1.381765647E-01  1.075018354E+05  2.746774335E+02  3.426506295E+02  2.923792534E+02  2.036445458E+02  1.904348473E-01 
        69  3.451963359E-02  1.308741206E-01  1.411278790E-01  1.072551940E+05  2.752242320E+02  3.426419315E+02  2.923644478E+02  2.040374136E+02  1.907967755E-01 
        70  3.508991352E-02  1.310576265E-01  1.440660380E-01  1.069057698E+05  2.761059353E+02  3.425980163E+02  2.922895203E+02  2.052223868E+02  1.920223332E-01 
        71  3.570211579E-02  1.312503676E-01  1.470000000E-01  1.063081201E+05  2.781223030E+02  3.423606606E+02  2.918818130E+02  2.077877216E+02  1.910099890E-01 
        72 -2.843361623E-02  1.708417341E-01 -4.258217492E-02  8.216707544E+04  1.832769184E+02  3.300654230E+02  2.712959232E+02  3.437725611E+02  1.008518450E+00 
        73 -2.838826984E-02  1.709653765E-01 -3.916427879E-02  8.217540991E+04  1.841106141E+02  3.299958787E+02  2.711815541E+02  3.447165442E+02  1.007449588E+00 
        74 -2.835908450E-02  1.711140563E-01 -3.574649433E-02  8.230679053E+04  1.836259249E+02  3.301544166E+02  2.714424231E+02  3.433339806E+02  1.006759514E+00 
        75 -2.838361088E-02  1.712589164E-01 -3.232950605E-02  8.269326489E+04  1.846275315E+02  3.302170973E+02  2.715456553E+02  3.445934763E+02  1.005988393E+00 
        76 -2.841360827E-02  1.714319125E-01 -2.891476756E-02  8.318969434E+04  1.826038942E+02  3.306400843E+02  2.722415209E+02  3.405440860E+02  1.005499318E+00 
        77 -2.833774301E-02  1.716334782E-01 -2.549995819E-02  8.370320502E+04  1.812886130E+02  3.310154727E+02  2.728601396E+02  3.383166013E+02  1.006273679E+00 
        78 -2.791452343E-02  1.719215161E-01 -2.212016887E-02  8.406415625E+04  1.815449476E+02  3.310212135E+02  2.728698330E+02  3.414667606E+02  1.010788605E+00 
        79 -2.700703325E-02  1.722886754E-01 -1.884820631E-02  8.413602612E+04  1.805488386E+02  3.311046886E+02  2.730075216E+02  3.404100590E+02  1.012422740E+00 
        80 -2.544395246E-02  1.727209334E-01 -1.584518523E-02  8.329875848E+04  1.815939716E+02  3.306573679E+02  2.722705975E+02  3.424055765E+02  1.012262088E+00 
        81 -2.351536464E-02  1.732363399E-01 -1.306823492E-02  8.136247401E+04  1.847400764E+02  3.295843467E+02  2.705061654E+02  3.475815681E+02  1.010926072E+00 
        82 -2.134527601E-02  1.737374909E-01 -1.047435973E-02  7.882433629E+04  1.909779819E+02  3.281241966E+02  2.681151962E+02  3.552108648E+02  1.003816484E+00 
        83 -1.897326710E-02  1.742189522E-01 -8.035177519E-03  7.600731201E+04  1.980717469E+02  3.263754767E+02  2.652661500E+02  3.636522033E+02  9.965673443E-01 
        84 -1.652827274E-02  1.746780172E-01 -5.688541800E-03  7.390537543E+04  2.042255263E+02  3.250859146E+02  2.631739223E+02  3.694817114E+02  9.874123167E-01 
        85 -1.397929867E-02  1.751251779E-01 -3.446989688E-03  7.299905383E+04  2.088000698E+02  3.244963880E+02  2.622206345E+02  3.724058952E+02  9.781071562E-01 
        86 -1.139011487E-02  1.755573757E-01 -1.256774906E-03  7.361195459E+04  2.105861819E+02  3.248316402E+02  2.627646527E+02  3.711175394E+02  9.691588227E-01 
        87 -8.734274343E-03  1.759085237E-01  8.667805443E-04  7.788689948E+04  2.051334651E+02  3.275364156E+02  2.671640496E+02  3.594286163E+02  9.648991111E-01 
        88 -6.073383534E-03  1.762548475E-01  2.984781313E-03  8.792483380E+04  1.915593268E+02  3.331413994E+02  2.763867037E+02  3.319899549E+02  9.643339566E-01 
        89 -3.359730182E-03  1.765819110E-01  5.053045394E-03  9.790389264E+04  1.752522501E+02  3.382764761E+02  2.849655195E+02  3.049562078E+02  9.836003361E-01 
        90 -6.741955509E-04  1.768270807E-01  7.130208361E-03  9.697915162E+04  1.692371050E+02  3.374500656E+02  2.835742826E+02  3.111567734E+02  1.013082968E+00 
        91  2.027043660E-03  1.770783858E-01  9.208570588E-03  7.926456100E+04  1.903673900E+02  3.285402063E+02  2.688003877E+02  3.589147398E+02  1.013779315E+00 
        92  4.731686997E-03  1.772422585E-01  1.127155269E-02  7.410726678E+04  2.098755336E+02  3.251006066E+02  2.632003753E+02  3.709691264E+02  9.712181233E-01 
        93  7.454465044E-03  1.773874983E-01  1.334309669E-02  7.389469875E+04  2.093053910E+02  3.249047863E+02  2.628838425E+02  3.726669008E+02  9.766065832E-01 
        94  1.015989937E-02  1.775222933E-01  1.545596277E-02  7.085000822E+04  2.178781914E+02  3.230333400E+02  2.598703608E+02  3.826147005E+02  9.681041281E-01 
        95  1.284858280E-02  1.775661421E-01  1.756817794E-02  6.734542578E+04  2.302558589E+02  3.205072542E+02  2.558217604E+02  3.943663714E+02  9.516848954E-01 
        96  1.551966693E-02  1.776138061E-01  1.970369132E-02  6.435131689E+04  2.385363162E+02  3.185577753E+02  2.527167287E+02  4.016300035E+02  9.400927285E-01 
        97  1.817410325E-02  1.776258069E-01  2.186017323E-02  6.172108325E+04  2.453813572E+02  3.169584050E+02  2.501844258E+02  4.081705136E+02  9.322650749E-01 
        98  2.080993586E-02  1.775631240E-01  2.403936301E-02  5.981055103E+04  2.539471087E+02  3.154868674E+02  2.478685265E+02  4.159210281E+02  9.215509444E-01 
        99  2.341570779E-02  1.774969016E-01  2.625394818E-02  5.927780750E+04  2.589762855E+02  3.152180681E+02  2.474501648E+02  4.169444094E+02  9.074301459E-01 
       100  2.600295182E-02  1.773818036E-01  2.848806157E-02  6.091057251E+04  2.596732683E+02  3.166907063E+02  2.497748947E+02  4.106043034E+02  8.904988691E-01 
       101  2.856627515E-02  1.771883875E-01  3.074502562E-02  6.624228687E+04  2.552484226E+02  3.203459263E+02  2.556229792E+02  3.950722151E+02  8.726648688E-01 
       102  3.110662233E-02  1.769811535E-01  3.302644514E-02  7.483939258E+04  2.449712353E+02  3.260053902E+02  2.647478752E+02  3.687103462E+02  8.533732835E-01 
       103  3.362247542E-02  1.767159818E-01  3.532849163E-02  8.174151001E+04  2.412600183E+02  3.301408253E+02  2.714443879E+02  3.509561186E+02  8.295983989E-01 
       104  3.610895472E-02  1.763647845E-01  3.765120331E-02  8.284813110E+04  2.467889745E+02  3.306550422E+02  2.722724524E+02  3.491824765E+02  8.074359111E-01 
       105  3.856497337E-02  1.759966372E-01  4.000321012E-02  8.019589670E+04  2.560533134E+02  3.290482414E+02  2.696332831E+02  3.569403565E+02  7.906638929E-01 
       106  4.103059304E-02  1.755360248E-01  4.234569910E-02  7.789630355E+04  2.642881045E+02  3.276670175E+02  2.673697589E+02  3.653026345E+02  7.782848782E-01 
       107  4.340106546E-02  1.750377176E-01  4.474435622E-02  7.832377463E+04  2.670893511E+02  3.282186654E+02  2.682719992E+02  3.624354957E+02  7.632637252E-01 
       108  4.575540032E-02  1.745445103E-01  4.717695363E-02  8.185029614E+04  2.670704362E+02  3.302400985E+02  2.715924201E+02  3.530309825E+02  7.457063375E-01 
       109  4.807037784E-02  1.739953488E-01  4.963532790E-02  8.825035620E+04  2.627886724E+02  3.336672392E+02  2.772656746E+02  3.361994066E+02  7.304286547E-01 
       110  5.034733117E-02  1.734133857E-01  5.212084081E-02  9.506316846E+04  2.581805267E+02  3.371523628E+02  2.830809174E+02  3.170006409E+02  7.140409052E-01 
       111  5.258765486E-02  1.728405975E-01  5.464144749E-02  9.960864111E+04  2.570610352E+02  3.394065094E+02  2.868719807E+02  3.056807804E+02  6.996926405E-01 
       112  5.479076840E-02  1.722430532E-01  5.718902978E-02  1.024710010E+05  2.573528042E+02  3.409013691E+02  2.894032097E+02  2.987570248E+02  6.880459804E-01 
       113  5.694737683E-02  1.716020731E-01  5.976586917E-02  1.053802427E+05  2.572729399E+02  3.423517280E+02  2.918712075E+02  2.900339921E+02  6.757363183E-01 
       114  5.911848447E-02  1.709340834E-01  6.233872565E-02  1.088091676E+05  2.563957381E+02  3.438576145E+02  2.944436863E+02  2.815724087E+02  6.669976040E-01 
       115  6.119351897E-02  1.703313828E-01  6.496775561E-02  1.116896475E+05  2.549535666E+02  3.451222620E+02  2.966132154E+02  2.752241368E+02  6.642098539E-01 
       116  6.319798910E-02  1.696485115E-01  6.765543605E-02  1.137569395E+05  2.549002628E+02  3.458752851E+02  2.979086199E+02  2.707295990E+02  6.585995154E-01 
       117  6.520189851E-02  1.689621155E-01  7.034628384E-02  1.157491133E+05  2.541896858E+02  3.466627235E+02  2.992665005E+02  2.648802500E+02  6.543566547E-01 
       118  6.717992039E-02  1.682884043E-01  7.305807409E-02  1.173277710E+05  2.514111948E+02  3.474725828E+02  3.006669827E+02  2.591109810E+02  6.587992068E-01 
       119  6.910755662E-02  1.675987334E-01  7.579818779E-02  1.185094097E+05  2.490223372E+02  3.480565069E+02  3.016772795E+02  2.561661630E+02  6.656563701E-01 
       120  7.101404689E-02  1.668389198E-01  7.852135391E-02  1.194911668E+05  2.468629612E+02  3.484218438E+02  3.023111961E+02  2.547075944E+02  6.727691940E-01 
