nodenumber     x-coordinate     y-coordinate     z-coordinate         pressure velocity-magnitude      sound-speed      temperature rel-velocity-magnitude relative-velocity-angle 
         1 -2.216901913E-02  1.039879580E-01 -4.300600202E-02  8.756471497E+04  1.536069236E+02  3.330827956E+02  2.762786994E+02  2.354161898E+02  8.600445694E-01 
         2 -2.197401757E-02  1.042260031E-01 -4.002397295E-02  8.748631421E+04  1.545426440E+02  3.330010062E+02  2.761429471E+02  2.364968269E+02  8.589261808E-01 
         3 -2.150271627E-02  1.045375264E-01 -3.708169353E-02  8.739116589E+04  1.550042275E+02  3.329638648E+02  2.760813997E+02  2.369596766E+02  8.582859077E-01 
         4 -2.072290556E-02  1.049359494E-01 -3.421635317E-02  8.725826819E+04  1.556145644E+02  3.329076252E+02  2.759881892E+02  2.376221809E+02  8.577078134E-01 
         5 -1.964621854E-02  1.053757771E-01 -3.145501365E-02  8.710585034E+04  1.564598312E+02  3.328158379E+02  2.758360591E+02  2.384790211E+02  8.565722667E-01 
         6 -1.833909717E-02  1.058829391E-01 -2.880182754E-02  8.696426587E+04  1.571915212E+02  3.327415237E+02  2.757129121E+02  2.392717357E+02  8.558101412E-01 
         7 -1.686396899E-02  1.064019756E-01 -2.624136390E-02  8.680217456E+04  1.581335044E+02  3.326438847E+02  2.755511036E+02  2.405234122E+02  8.555330299E-01 
         8 -1.524276490E-02  1.069101094E-01 -2.376908005E-02  8.659070850E+04  1.589349678E+02  3.325416946E+02  2.753817959E+02  2.415020013E+02  8.550232314E-01 
         9 -1.353040875E-02  1.074492491E-01 -2.136449246E-02  8.634263574E+04  1.602473955E+02  3.323999348E+02  2.751470630E+02  2.429773064E+02  8.536181878E-01 
        10 -1.175719847E-02  1.079385502E-01 -1.899452623E-02  8.610176324E+04  1.617002256E+02  3.322686670E+02  2.749297824E+02  2.441527157E+02  8.504916495E-01 
        11 -9.920451205E-03  1.084473482E-01 -1.667649769E-02  8.603135889E+04  1.627558372E+02  3.322322763E+02  2.748695869E+02  2.446001053E+02  8.468658240E-01 
        12 -8.053093039E-03  1.089314126E-01 -1.437870322E-02  8.619558954E+04  1.629557155E+02  3.323541857E+02  2.750712714E+02  2.444681938E+02  8.460109504E-01 
        13 -6.139911673E-03  1.093816015E-01 -1.211111235E-02  8.668116260E+04  1.626990943E+02  3.325880947E+02  2.754587483E+02  2.431615601E+02  8.434219677E-01 
        14 -4.213714023E-03  1.098625599E-01 -9.853315987E-03  8.747036426E+04  1.608291769E+02  3.329909992E+02  2.761265545E+02  2.407494688E+02  8.458538018E-01 
        15 -2.267252226E-03  1.102821410E-01 -7.616721013E-03  8.855824658E+04  1.563991222E+02  3.335914955E+02  2.771233625E+02  2.372436686E+02  8.588616773E-01 
        16 -3.058463972E-04  1.106716081E-01 -5.380345181E-03  8.949228076E+04  1.497183776E+02  3.340428152E+02  2.778738880E+02  2.338627877E+02  8.854941130E-01 
        17  1.649896870E-03  1.110991589E-01 -3.144821902E-03  8.735348645E+04  1.457387649E+02  3.330111556E+02  2.761630280E+02  2.428683546E+02  9.388841400E-01 
        18  3.605378217E-03  1.114680886E-01 -8.997268064E-04  7.592653735E+04  1.752882128E+02  3.263621330E+02  2.652428670E+02  2.861098690E+02  9.417054970E-01 
        19  5.548952344E-03  1.118349081E-01  1.356589372E-03  6.995800446E+04  2.111315556E+02  3.225504665E+02  2.590860050E+02  3.096600313E+02  8.452610103E-01 
        20  7.472030685E-03  1.121892539E-01  3.633809071E-03  7.300120346E+04  2.115969958E+02  3.248278993E+02  2.627590628E+02  2.975180310E+02  7.906492080E-01 
        21  9.366594022E-03  1.125505666E-01  5.932977735E-03  7.664009283E+04  2.078982251E+02  3.271087496E+02  2.664610240E+02  2.843466489E+02  7.588462862E-01 
        22  1.122147558E-02  1.129077905E-01  8.263617067E-03  7.902095177E+04  2.081526802E+02  3.284555165E+02  2.686573178E+02  2.753645792E+02  7.238103566E-01 
        23  1.303284284E-02  1.132507638E-01  1.062953057E-02  8.058530706E+04  2.109836555E+02  3.293240293E+02  2.700795587E+02  2.711645515E+02  6.942328100E-01 
        24  1.479928419E-02  1.136234762E-01  1.303021626E-02  8.174079352E+04  2.151399944E+02  3.299905804E+02  2.711740925E+02  2.678304749E+02  6.610900741E-01 
        25  1.649617427E-02  1.139938279E-01  1.547769530E-02  8.278282068E+04  2.201115170E+02  3.304994373E+02  2.720111306E+02  2.648390160E+02  6.253654608E-01 
        26  1.811807173E-02  1.143837002E-01  1.797032872E-02  8.350663635E+04  2.258548565E+02  3.308070259E+02  2.725174026E+02  2.631464267E+02  5.905204685E-01 
        27  1.968166241E-02  1.148013513E-01  2.049621310E-02  8.357446301E+04  2.329125369E+02  3.307980008E+02  2.725025339E+02  2.633928781E+02  5.554620475E-01 
        28  2.119101764E-02  1.152299366E-01  2.305322148E-02  8.300738730E+04  2.414521257E+02  3.304590571E+02  2.719444350E+02  2.656628667E+02  5.199240305E-01 
        29  2.266338778E-02  1.156643914E-01  2.563116057E-02  8.237376581E+04  2.504138951E+02  3.300273876E+02  2.712346694E+02  2.690773817E+02  4.867205103E-01 
        30  2.408077791E-02  1.161159634E-01  2.823658064E-02  8.185197906E+04  2.586168590E+02  3.297323437E+02  2.707497294E+02  2.725507154E+02  4.575147615E-01 
        31  2.544088325E-02  1.165921105E-01  3.086849856E-02  8.133004431E+04  2.664378772E+02  3.295003834E+02  2.703688965E+02  2.753831372E+02  4.283817373E-01 
        32  2.674433127E-02  1.170738851E-01  3.352942364E-02  8.076704297E+04  2.745854061E+02  3.292126412E+02  2.698968689E+02  2.780282700E+02  3.972320189E-01 
        33  2.797950643E-02  1.175445507E-01  3.622298897E-02  8.021970575E+04  2.831072026E+02  3.288705907E+02  2.693361591E+02  2.807545755E+02  3.645077262E-01 
        34  2.916313541E-02  1.180056499E-01  3.893937175E-02  7.991075342E+04  2.908208495E+02  3.286860916E+02  2.690341418E+02  2.827255226E+02  3.331209626E-01 
        35  3.031249539E-02  1.184785399E-01  4.167042727E-02  8.004422284E+04  2.965806371E+02  3.288096218E+02  2.692362157E+02  2.830194198E+02  3.056018831E-01 
        36  3.139929926E-02  1.189405785E-01  4.442941843E-02  8.029732437E+04  3.018403229E+02  3.289760970E+02  2.695086426E+02  2.829696006E+02  2.794221574E-01 
        37  3.242013936E-02  1.193808800E-01  4.721660669E-02  8.079125587E+04  3.068483973E+02  3.292725214E+02  2.699947184E+02  2.822842986E+02  2.517512911E-01 
        38  3.340677803E-02  1.198011670E-01  5.002067675E-02  8.204845801E+04  3.094788225E+02  3.300155485E+02  2.712150463E+02  2.787852623E+02  2.253825762E-01 
        39  3.430413654E-02  1.201853153E-01  5.285529857E-02  8.376421167E+04  3.107232237E+02  3.309897604E+02  2.728191366E+02  2.737907467E+02  2.003711369E-01 
        40  3.515433510E-02  1.205874318E-01  5.570324370E-02  8.590247314E+04  3.106348515E+02  3.321408348E+02  2.747205906E+02  2.674552784E+02  1.772608450E-01 
        41  3.592907297E-02  1.209644065E-01  5.857535950E-02  8.830264868E+04  3.089641676E+02  3.334227610E+02  2.768457327E+02  2.600895710E+02  1.588617670E-01 
        42  3.664355424E-02  1.213334730E-01  6.146049591E-02  9.076094971E+04  3.058305883E+02  3.346858549E+02  2.789470468E+02  2.523101430E+02  1.473505686E-01 
        43  3.727845098E-02  1.217084379E-01  6.437276718E-02  9.300309204E+04  3.020027924E+02  3.357886848E+02  2.807874956E+02  2.450965252E+02  1.426566620E-01 
        44  3.781448665E-02  1.220744111E-01  6.730672953E-02  9.475632861E+04  2.983935442E+02  3.366693802E+02  2.822616177E+02  2.393785329E+02  1.433683857E-01 
        45  3.826762164E-02  1.224563704E-01  7.025293559E-02  9.591807990E+04  2.956922085E+02  3.373089607E+02  2.833346241E+02  2.356767323E+02  1.473901847E-01 
        46  3.856443464E-02  1.228195695E-01  7.317567491E-02  9.657529297E+04  2.938016434E+02  3.378008728E+02  2.841620255E+02  2.335215225E+02  1.528938413E-01 
        47  3.882754171E-02  1.231963568E-01  7.616928387E-02  9.685063574E+04  2.921582291E+02  3.384741369E+02  2.852972051E+02  2.317234488E+02  1.588796157E-01 
        48  3.896508106E-02  1.235573809E-01  7.913505459E-02  9.685339648E+04  2.884875946E+02  3.395322037E+02  2.870975723E+02  2.255863495E+02  1.628731005E-01 
        49  3.903512947E-02  1.239238609E-01  8.213137167E-02  9.665995044E+04  2.786236467E+02  3.415980148E+02  2.906275902E+02  2.084009691E+02  1.725199856E-01 
        50  3.900153017E-02  1.243001337E-01  8.510504302E-02  9.635787244E+04  2.624167873E+02  3.448275747E+02  2.961598845E+02  1.778158680E+02  1.780273436E-01 
        51  3.889299026E-02  1.246700891E-01  8.806950082E-02  9.598261957E+04  2.452859607E+02  3.483546093E+02  3.022443619E+02  1.330153720E+02  1.624529453E-01 
        52  3.870303970E-02  1.250405990E-01  9.105247242E-02  9.595459595E+04  2.379973283E+02  3.509296370E+02  3.066996231E+02  9.102882934E+01  1.850379223E-02 
        53  3.847530202E-02  1.253810613E-01  9.402032493E-02  9.648737857E+04  2.405032456E+02  3.519814540E+02  3.085368621E+02  5.609651552E+01 -5.715952422E-01 
        54  3.809583015E-02  1.257752167E-01  9.695318516E-02  9.780497852E+04  2.363947639E+02  3.533414955E+02  3.109144440E+02  3.852775431E+01 -1.550553203E+00 
        55  3.767199372E-02  1.261489404E-01  9.992435767E-02  9.845769141E+04  2.437734685E+02  3.525115242E+02  3.094537497E+02  4.576996887E+01 -1.524723884E+00 
        56  3.723780727E-02  1.265196365E-01  1.028569506E-01  1.000402960E+05  2.447927953E+02  3.510539368E+02  3.068986707E+02  6.484722327E+01 -1.100303682E+00 
        57  3.672955052E-02  1.269046997E-01  1.057947981E-01  1.025950006E+05  2.306281955E+02  3.498958125E+02  3.048777204E+02  1.017138512E+02  6.754760817E-02 
        58  3.615520807E-02  1.273091289E-01  1.087154776E-01  1.055814941E+05  2.286628399E+02  3.480290260E+02  3.016379976E+02  1.443561234E+02  3.022129368E-01 
        59  3.556812424E-02  1.277144368E-01  1.116309472E-01  1.075440698E+05  2.436458650E+02  3.460691373E+02  2.982500863E+02  1.733382157E+02  2.708352974E-01 
        60  3.495651588E-02  1.281329458E-01  1.145394580E-01  1.077868328E+05  2.600730329E+02  3.443538108E+02  2.952970390E+02  1.899784489E+02  2.182631404E-01 
        61  3.433795015E-02  1.285471243E-01  1.174457346E-01  1.077622632E+05  2.670473015E+02  3.433532681E+02  2.935804348E+02  1.967679410E+02  1.995286993E-01 
        62  3.376061330E-02  1.289460490E-01  1.203607660E-01  1.080290723E+05  2.664862499E+02  3.432068801E+02  2.933294959E+02  1.951496072E+02  1.988408933E-01 
        63  3.331803132E-02  1.293309423E-01  1.232882868E-01  1.082576273E+05  2.660829758E+02  3.432224053E+02  2.933557194E+02  1.939645912E+02  1.988408849E-01 
        64  3.310586596E-02  1.296649637E-01  1.262581306E-01  1.082968968E+05  2.684949291E+02  3.430654750E+02  2.930875726E+02  1.971027952E+02  1.966761199E-01 
        65  3.306639982E-02  1.299493947E-01  1.292495641E-01  1.081429668E+05  2.712334508E+02  3.429383974E+02  2.928704424E+02  2.000181136E+02  1.919778446E-01 
        66  3.322486525E-02  1.302097713E-01  1.322380794E-01  1.079241935E+05  2.730453808E+02  3.429176486E+02  2.928349050E+02  2.020014239E+02  1.900451823E-01 
        67  3.356462385E-02  1.304573038E-01  1.352130229E-01  1.076721093E+05  2.747185602E+02  3.428557796E+02  2.927293146E+02  2.039290790E+02  1.890774335E-01 
        68  3.400410102E-02  1.306751199E-01  1.381765647E-01  1.073751364E+05  2.762413149E+02  3.427371621E+02  2.925267479E+02  2.057437229E+02  1.885166597E-01 
        69  3.451963359E-02  1.308741206E-01  1.411278790E-01  1.070754259E+05  2.775248513E+02  3.426178002E+02  2.923230040E+02  2.074447136E+02  1.890676585E-01 
        70  3.508991352E-02  1.310576265E-01  1.440660380E-01  1.067391912E+05  2.786739929E+02  3.425012736E+02  2.921241534E+02  2.091501784E+02  1.904962666E-01 
        71  3.570211579E-02  1.312503676E-01  1.470000000E-01  1.063021533E+05  2.800634460E+02  3.423299904E+02  2.918309708E+02  2.111411457E+02  1.912586726E-01 
        72 -2.843361623E-02  1.708417341E-01 -4.258217492E-02  8.206548657E+04  1.836540399E+02  3.300031767E+02  2.711935596E+02  3.441698656E+02  1.007881496E+00 
        73 -2.838826984E-02  1.709653765E-01 -3.916427879E-02  8.210685034E+04  1.845266142E+02  3.299568911E+02  2.711177242E+02  3.448268790E+02  1.006246454E+00 
        74 -2.835908450E-02  1.711140563E-01 -3.574649433E-02  8.239015826E+04  1.832446445E+02  3.302359786E+02  2.715765443E+02  3.435523260E+02  1.008533566E+00 
        75 -2.838361088E-02  1.712589164E-01 -3.232950605E-02  8.283216016E+04  1.834398007E+02  3.303753347E+02  2.718058405E+02  3.429170923E+02  1.006752446E+00 
        76 -2.841360827E-02  1.714319125E-01 -2.891476756E-02  8.344102075E+04  1.819343076E+02  3.307837720E+02  2.724783769E+02  3.417157087E+02  1.009637699E+00 
        77 -2.833774301E-02  1.716334782E-01 -2.549995819E-02  8.390203827E+04  1.810790294E+02  3.310603379E+02  2.729342088E+02  3.393594321E+02  1.008413171E+00 
        78 -2.791452343E-02  1.719215161E-01 -2.212016887E-02  8.419719922E+04  1.804537048E+02  3.311862354E+02  2.731415939E+02  3.394696102E+02  1.010775670E+00 
        79 -2.700703325E-02  1.722886754E-01 -1.884820631E-02  8.421745728E+04  1.798171606E+02  3.312113256E+02  2.731829205E+02  3.399876461E+02  1.013855908E+00 
        80 -2.544395246E-02  1.727209334E-01 -1.584518523E-02  8.331461023E+04  1.811363329E+02  3.306275856E+02  2.722212679E+02  3.431829467E+02  1.015070512E+00 
        81 -2.351536464E-02  1.732363399E-01 -1.306823492E-02  8.143323305E+04  1.844974297E+02  3.296442933E+02  2.706053462E+02  3.482348741E+02  1.012897127E+00 
        82 -2.134527601E-02  1.737374909E-01 -1.047435973E-02  7.876746613E+04  1.904803202E+02  3.280846225E+02  2.680508106E+02  3.556721669E+02  1.006205509E+00 
        83 -1.897326710E-02  1.742189522E-01 -8.035177519E-03  7.583746603E+04  1.983721187E+02  3.262920015E+02  2.651296339E+02  3.638240355E+02  9.953291337E-01 
        84 -1.652827274E-02  1.746780172E-01 -5.688541800E-03  7.341343933E+04  2.059704490E+02  3.247451544E+02  2.626218526E+02  3.700429406E+02  9.820675272E-01 
        85 -1.397929867E-02  1.751251779E-01 -3.446989688E-03  7.255508057E+04  2.100556941E+02  3.242015719E+02  2.617434940E+02  3.743318181E+02  9.773341585E-01 
        86 -1.139011487E-02  1.755573757E-01 -1.256774906E-03  7.342702405E+04  2.114919691E+02  3.246564336E+02  2.624806314E+02  3.718892040E+02  9.673852026E-01 
        87 -8.734274343E-03  1.759085237E-01  8.667805443E-04  7.839874701E+04  2.046508496E+02  3.277985809E+02  2.675914044E+02  3.594685562E+02  9.660084788E-01 
        88 -6.073383534E-03  1.762548475E-01  2.984781313E-03  8.834746039E+04  1.903234737E+02  3.334541373E+02  2.769033829E+02  3.314910169E+02  9.663995546E-01 
        89 -3.359730182E-03  1.765819110E-01  5.053045394E-03  9.799320081E+04  1.754712249E+02  3.382574370E+02  2.849341289E+02  3.056546929E+02  9.831870175E-01 
        90 -6.741955509E-04  1.768270807E-01  7.130208361E-03  9.752348669E+04  1.654536499E+02  3.380788646E+02  2.846340862E+02  3.082978891E+02  1.022021580E+00 
        91  2.027043660E-03  1.770783858E-01  9.208570588E-03  7.870913165E+04  1.952728211E+02  3.279373999E+02  2.678131128E+02  3.630649269E+02  1.004474389E+00 
        92  4.731686997E-03  1.772422585E-01  1.127155269E-02  7.299569484E+04  2.162571077E+02  3.242767388E+02  2.618690112E+02  3.783944997E+02  9.646605452E-01 
        93  7.454465044E-03  1.773874983E-01  1.334309669E-02  7.361907875E+04  2.110855520E+02  3.247083911E+02  2.625648499E+02  3.747050248E+02  9.743475486E-01 
        94  1.015989937E-02  1.775222933E-01  1.545596277E-02  7.092675943E+04  2.183497614E+02  3.230224857E+02  2.598484416E+02  3.821519808E+02  9.651084609E-01 
        95  1.284858280E-02  1.775661421E-01  1.756817794E-02  6.747721497E+04  2.285934062E+02  3.207892654E+02  2.562689084E+02  3.922206256E+02  9.523582952E-01 
        96  1.551966693E-02  1.776138061E-01  1.970369132E-02  6.433016138E+04  2.373990967E+02  3.187375846E+02  2.530013614E+02  4.012412400E+02  9.428543495E-01 
        97  1.817410325E-02  1.776258069E-01  2.186017323E-02  6.171228491E+04  2.454714489E+02  3.169469385E+02  2.501653500E+02  4.084763446E+02  9.324448602E-01 
        98  2.080993586E-02  1.775631240E-01  2.403936301E-02  5.985024292E+04  2.536877246E+02  3.155102873E+02  2.479009714E+02  4.145576181E+02  9.190049767E-01 
        99  2.341570779E-02  1.774969016E-01  2.625394818E-02  5.930701514E+04  2.587453837E+02  3.152305679E+02  2.474629040E+02  4.163332958E+02  9.059515670E-01 
       100  2.600295182E-02  1.773818036E-01  2.848806157E-02  6.109558789E+04  2.609429121E+02  3.164834518E+02  2.494474516E+02  4.125777931E+02  8.903813697E-01 
       101  2.856627515E-02  1.771883875E-01  3.074502562E-02  6.659184790E+04  2.560786800E+02  3.203580904E+02  2.556420212E+02  3.957827263E+02  8.710308596E-01 
       102  3.110662233E-02  1.769811535E-01  3.302644514E-02  7.495066602E+04  2.465680838E+02  3.260062304E+02  2.647332211E+02  3.700729723E+02  8.495240882E-01 
       103  3.362247542E-02  1.767159818E-01  3.532849163E-02  8.171768225E+04  2.429267659E+02  3.300086470E+02  2.712249293E+02  3.521147413E+02  8.261363581E-01 
       104  3.610895472E-02  1.763647845E-01  3.765120331E-02  8.313462170E+04  2.474168072E+02  3.306542821E+02  2.722715144E+02  3.492708602E+02  8.055669414E-01 
       105  3.856497337E-02  1.759966372E-01  4.000321012E-02  8.071842279E+04  2.553166984E+02  3.294987810E+02  2.703690740E+02  3.551472549E+02  7.896937686E-01 
       106  4.103059304E-02  1.755360248E-01  4.234569910E-02  7.848701011E+04  2.618350195E+02  3.286128994E+02  2.689151182E+02  3.598971065E+02  7.761466958E-01 
       107  4.340106546E-02  1.750377176E-01  4.474435622E-02  7.884810469E+04  2.661149657E+02  3.287952210E+02  2.692147909E+02  3.596402346E+02  7.613691320E-01 
       108  4.575540032E-02  1.745445103E-01  4.717695363E-02  8.233655920E+04  2.666988153E+02  3.305622754E+02  2.721217837E+02  3.518401318E+02  7.448845617E-01 
       109  4.807037784E-02  1.739953488E-01  4.963532790E-02  8.848635132E+04  2.626878233E+02  3.337499266E+02  2.774008512E+02  3.363024416E+02  7.307742741E-01 
       110  5.034733117E-02  1.734133857E-01  5.212084081E-02  9.475562939E+04  2.583371067E+02  3.369997063E+02  2.828233795E+02  3.186242695E+02  7.159272656E-01 
       111  5.258765486E-02  1.728405975E-01  5.464144749E-02  9.905541357E+04  2.574320164E+02  3.391664333E+02  2.864660549E+02  3.065587807E+02  6.996844672E-01 
       112  5.479076840E-02  1.722430532E-01  5.718902978E-02  1.019381125E+05  2.576942711E+02  3.406445971E+02  2.889673891E+02  2.997591410E+02  6.883432008E-01 
       113  5.694737683E-02  1.716020731E-01  5.976586917E-02  1.049068370E+05  2.569068892E+02  3.421204295E+02  2.914767067E+02  2.919654388E+02  6.798213338E-01 
       114  5.911848447E-02  1.709340834E-01  6.233872565E-02  1.082319043E+05  2.553585152E+02  3.436272422E+02  2.940489500E+02  2.828422378E+02  6.725125295E-01 
       115  6.119351897E-02  1.703313828E-01  6.496775561E-02  1.110983101E+05  2.543592720E+02  3.448422384E+02  2.961319933E+02  2.762522030E+02  6.677165106E-01 
       116  6.319798910E-02  1.696485115E-01  6.765543605E-02  1.134142540E+05  2.538059855E+02  3.458171248E+02  2.978083181E+02  2.699093270E+02  6.617420865E-01 
       117  6.520189851E-02  1.689621155E-01  7.034628384E-02  1.156016626E+05  2.523605347E+02  3.467668924E+02  2.994462852E+02  2.637413397E+02  6.601157505E-01 
       118  6.717992039E-02  1.682884043E-01  7.305807409E-02  1.173000957E+05  2.508560944E+02  3.474147387E+02  3.005661478E+02  2.595495834E+02  6.615084615E-01 
       119  6.910755662E-02  1.675987334E-01  7.579818779E-02  1.186739355E+05  2.487242827E+02  3.479321692E+02  3.014621484E+02  2.570462534E+02  6.675899895E-01 
       120  7.101404689E-02  1.668389198E-01  7.852135391E-02  1.197186838E+05  2.464579109E+02  3.483170881E+02  3.021293321E+02  2.537677469E+02  6.733128354E-01 
