nodenumber     x-coordinate     y-coordinate     z-coordinate         pressure velocity-magnitude      sound-speed      temperature rel-velocity-magnitude relative-velocity-angle 
         1 -2.216901913E-02  1.039879580E-01 -4.300600202E-02  8.753676779E+04  1.538089663E+02  3.330616132E+02  2.762435635E+02  2.354654540E+02  8.591221563E-01 
         2 -2.197401757E-02  1.042260031E-01 -4.002397295E-02  8.745992365E+04  1.544414794E+02  3.330042043E+02  2.761482973E+02  2.363077664E+02  8.587847578E-01 
         3 -2.150271627E-02  1.045375264E-01 -3.708169353E-02  8.733308856E+04  1.551787306E+02  3.329294057E+02  2.760241923E+02  2.374996861E+02  8.593092035E-01 
         4 -2.072290556E-02  1.049359494E-01 -3.421635317E-02  8.719822717E+04  1.555756714E+02  3.328846350E+02  2.759500046E+02  2.372883241E+02  8.568908023E-01 
         5 -1.964621854E-02  1.053757771E-01 -3.145501365E-02  8.708635986E+04  1.563586354E+02  3.328195744E+02  2.758422394E+02  2.384268751E+02  8.569681644E-01 
         6 -1.833909717E-02  1.058829391E-01 -2.880182754E-02  8.698340845E+04  1.571225624E+02  3.327561760E+02  2.757371926E+02  2.394389381E+02  8.569076210E-01 
         7 -1.686396899E-02  1.064019756E-01 -2.624136390E-02  8.681130371E+04  1.581147575E+02  3.326476097E+02  2.755573339E+02  2.404825702E+02  8.555679582E-01 
         8 -1.524276490E-02  1.069101094E-01 -2.376908005E-02  8.663372717E+04  1.590809877E+02  3.325459666E+02  2.753888607E+02  2.416386461E+02  8.546754029E-01 
         9 -1.353040875E-02  1.074492491E-01 -2.136449246E-02  8.643957764E+04  1.602209625E+02  3.324383016E+02  2.752105448E+02  2.428390329E+02  8.533430053E-01 
        10 -1.175719847E-02  1.079385502E-01 -1.899452623E-02  8.623765753E+04  1.614013282E+02  3.323338010E+02  2.750374768E+02  2.439671133E+02  8.513880195E-01 
        11 -9.920451205E-03  1.084473482E-01 -1.667649769E-02  8.610742313E+04  1.625974873E+02  3.322649696E+02  2.749237570E+02  2.445247248E+02  8.474337140E-01 
        12 -8.053093039E-03  1.089314126E-01 -1.437870322E-02  8.627816483E+04  1.628805373E+02  3.323943182E+02  2.751378348E+02  2.442409830E+02  8.456668840E-01 
        13 -6.139911673E-03  1.093816015E-01 -1.211111235E-02  8.671208984E+04  1.622371559E+02  3.326342316E+02  2.755350881E+02  2.430456057E+02  8.455191441E-01 
        14 -4.213714023E-03  1.098625599E-01 -9.853315987E-03  8.755921973E+04  1.604936533E+02  3.330479622E+02  2.762211170E+02  2.404871225E+02  8.467176631E-01 
        15 -2.267252226E-03  1.102821410E-01 -7.616721013E-03  8.856866650E+04  1.563336906E+02  3.335803757E+02  2.771048946E+02  2.370008240E+02  8.585146442E-01 
        16 -3.058463972E-04  1.106716081E-01 -5.380345181E-03  8.925045215E+04  1.504361444E+02  3.339066753E+02  2.776475267E+02  2.351383886E+02  8.858401626E-01 
        17  1.649896870E-03  1.110991589E-01 -3.144821902E-03  8.754093762E+04  1.451114575E+02  3.330816584E+02  2.762784219E+02  2.405912359E+02  9.340226250E-01 
        18  3.605378217E-03  1.114680886E-01 -8.997268064E-04  7.567899573E+04  1.759875717E+02  3.261634955E+02  2.649204202E+02  2.869090562E+02  9.412187748E-01 
        19  5.548952344E-03  1.118349081E-01  1.356589372E-03  7.005586951E+04  2.120545923E+02  3.224910424E+02  2.589909556E+02  3.104568963E+02  8.427278460E-01 
        20  7.472030685E-03  1.121892539E-01  3.633809071E-03  7.298451219E+04  2.130847299E+02  3.245620898E+02  2.623325909E+02  2.982622965E+02  7.862453768E-01 
        21  9.366594022E-03  1.125505666E-01  5.932977735E-03  7.660573590E+04  2.069954946E+02  3.271700146E+02  2.665611665E+02  2.820201733E+02  7.544939537E-01 
        22  1.122147558E-02  1.129077905E-01  8.263617067E-03  7.897877591E+04  2.059432847E+02  3.287075180E+02  2.690713216E+02  2.716968991E+02  7.212361894E-01 
        23  1.303284284E-02  1.132507638E-01  1.062953057E-02  8.054528416E+04  2.084612000E+02  3.296066265E+02  2.705452755E+02  2.681615864E+02  6.958541685E-01 
        24  1.479928419E-02  1.136234762E-01  1.303021626E-02  8.174142337E+04  2.138786286E+02  3.301389744E+02  2.714198576E+02  2.658888959E+02  6.612184369E-01 
        25  1.649617427E-02  1.139938279E-01  1.547769530E-02  8.280950830E+04  2.192612619E+02  3.305859032E+02  2.721546662E+02  2.629829803E+02  6.238871063E-01 
        26  1.811807173E-02  1.143837002E-01  1.797032872E-02  8.353377454E+04  2.247406023E+02  3.308735175E+02  2.726275282E+02  2.614131765E+02  5.905558178E-01 
        27  1.968166241E-02  1.148013513E-01  2.049621310E-02  8.360244519E+04  2.316458306E+02  3.308729422E+02  2.726260376E+02  2.622530379E+02  5.584776634E-01 
        28  2.119101764E-02  1.152299366E-01  2.305322148E-02  8.304115836E+04  2.408492409E+02  3.304980583E+02  2.720086262E+02  2.657627776E+02  5.234390323E-01 
        29  2.266338778E-02  1.156643914E-01  2.563116057E-02  8.241369647E+04  2.495257813E+02  3.301621103E+02  2.714557406E+02  2.685681417E+02  4.891263933E-01 
        30  2.408077791E-02  1.161159634E-01  2.823658064E-02  8.187819067E+04  2.572874973E+02  3.299171522E+02  2.710530083E+02  2.704179223E+02  4.566983036E-01 
        31  2.544088325E-02  1.165921105E-01  3.086849856E-02  8.130972034E+04  2.658407948E+02  3.294759293E+02  2.703295634E+02  2.736549206E+02  4.256043411E-01 
        32  2.674433127E-02  1.170738851E-01  3.352942364E-02  8.071388806E+04  2.741786027E+02  3.290759048E+02  2.696737354E+02  2.772217057E+02  3.968482823E-01 
        33  2.797950643E-02  1.175445507E-01  3.622298897E-02  8.017650430E+04  2.814144822E+02  3.289174867E+02  2.694133759E+02  2.795593704E+02  3.691220402E-01 
        34  2.916313541E-02  1.180056499E-01  3.893937175E-02  7.988711855E+04  2.880906981E+02  3.289039358E+02  2.693903626E+02  2.807263106E+02  3.399284425E-01 
        35  3.031249539E-02  1.184785399E-01  4.167042727E-02  8.000998489E+04  2.949635882E+02  3.288453724E+02  2.692943975E+02  2.821128695E+02  3.107815499E-01 
        36  3.139929926E-02  1.189405785E-01  4.442941843E-02  8.026550754E+04  3.007410364E+02  3.290105325E+02  2.695653130E+02  2.822800152E+02  2.827710788E-01 
        37  3.242013936E-02  1.193808800E-01  4.721660669E-02  8.080998384E+04  3.058062543E+02  3.294139899E+02  2.702267268E+02  2.811117693E+02  2.528312639E-01 
        38  3.340677803E-02  1.198011670E-01  5.002067675E-02  8.214394199E+04  3.086735286E+02  3.302278920E+02  2.715648053E+02  2.773337790E+02  2.239806263E-01 
        39  3.430413654E-02  1.201853153E-01  5.285529857E-02  8.391912646E+04  3.098787785E+02  3.313192377E+02  2.733633909E+02  2.720451803E+02  1.979746260E-01 
        40  3.515433510E-02  1.205874318E-01  5.570324370E-02  8.607832227E+04  3.098520756E+02  3.325629692E+02  2.754197712E+02  2.656625690E+02  1.742909038E-01 
        41  3.592907297E-02  1.209644065E-01  5.857535950E-02  8.849474487E+04  3.085253077E+02  3.338672380E+02  2.775842605E+02  2.587008667E+02  1.555994889E-01 
        42  3.664355424E-02  1.213334730E-01  6.146049591E-02  9.096131519E+04  3.060954328E+02  3.350470524E+02  2.795490203E+02  2.518361573E+02  1.437649697E-01 
        43  3.727845098E-02  1.217084379E-01  6.437276718E-02  9.316703906E+04  3.027929153E+02  3.360236979E+02  2.811803474E+02  2.453445730E+02  1.389182759E-01 
        44  3.781448665E-02  1.220744111E-01  6.730672953E-02  9.482525830E+04  2.991491556E+02  3.367932720E+02  2.824693241E+02  2.402565002E+02  1.424631770E-01 
        45  3.826762164E-02  1.224563704E-01  7.025293559E-02  9.588009033E+04  2.957976224E+02  3.373550336E+02  2.834118874E+02  2.366280843E+02  1.506853227E-01 
        46  3.856443464E-02  1.228195695E-01  7.317567491E-02  9.647700781E+04  2.936053543E+02  3.376815491E+02  2.839607773E+02  2.343670044E+02  1.575525999E-01 
        47  3.882754171E-02  1.231963568E-01  7.616928387E-02  9.671825043E+04  2.914597483E+02  3.382040322E+02  2.848420379E+02  2.317255414E+02  1.633088448E-01 
        48  3.896508106E-02  1.235573809E-01  7.913505459E-02  9.666408203E+04  2.863472023E+02  3.393650589E+02  2.868165398E+02  2.235247459E+02  1.690442748E-01 
        49  3.903512947E-02  1.239238609E-01  8.213137167E-02  9.657117505E+04  2.747199385E+02  3.417138436E+02  2.908310869E+02  2.030734882E+02  1.818225051E-01 
        50  3.900153017E-02  1.243001337E-01  8.510504302E-02  9.640630005E+04  2.560783652E+02  3.454792302E+02  2.972833295E+02  1.673928182E+02  1.915401838E-01 
        51  3.889299026E-02  1.246700891E-01  8.806950082E-02  9.639205524E+04  2.398789628E+02  3.493018134E+02  3.038823512E+02  1.200124230E+02  1.546333145E-01 
        52  3.870303970E-02  1.250405990E-01  9.105247242E-02  9.644181128E+04  2.336352329E+02  3.520668077E+02  3.086824498E+02  7.834487486E+01  1.299158004E-02 
        53  3.847530202E-02  1.253810613E-01  9.402032493E-02  9.718670416E+04  2.338766010E+02  3.533891724E+02  3.109991357E+02  4.487521926E+01 -4.396086908E-01 
        54  3.809583015E-02  1.257752167E-01  9.695318516E-02  9.722953125E+04  2.272944946E+02  3.534297600E+02  3.110667114E+02  4.031947184E+01 -4.953632699E-01 
        55  3.767199372E-02  1.261489404E-01  9.992435767E-02  9.784777734E+04  2.384154692E+02  3.525915804E+02  3.095920644E+02  4.794525802E+01 -1.477916479E+00 
        56  3.723780727E-02  1.265196365E-01  1.028569506E-01  1.002949219E+05  2.494321737E+02  3.524411769E+02  3.093274883E+02  5.964289914E+01 -1.362423528E+00 
        57  3.672955052E-02  1.269046997E-01  1.057947981E-01  1.020001368E+05  2.493405879E+02  3.513785987E+02  3.074657040E+02  1.029606121E+02 -2.076766075E-01 
        58  3.615520807E-02  1.273091289E-01  1.087154776E-01  1.029277478E+05  2.404323320E+02  3.489794292E+02  3.032851896E+02  1.510514569E+02  2.258712025E-01 
        59  3.556812424E-02  1.277144368E-01  1.116309472E-01  1.043865747E+05  2.459497154E+02  3.453113215E+02  2.969441307E+02  1.850396526E+02  2.948016902E-01 
        60  3.495651588E-02  1.281329458E-01  1.145394580E-01  1.060586272E+05  2.543538256E+02  3.430660849E+02  2.930916553E+02  1.975105357E+02  2.810367630E-01 
        61  3.433795015E-02  1.285471243E-01  1.174457346E-01  1.074297528E+05  2.571156919E+02  3.427114367E+02  2.924836292E+02  1.951525342E+02  2.564967624E-01 
        62  3.376061330E-02  1.289460490E-01  1.203607660E-01  1.081306467E+05  2.590938914E+02  3.430775044E+02  2.931080430E+02  1.903042097E+02  2.283499974E-01 
        63  3.331803132E-02  1.293309423E-01  1.232882868E-01  1.082470532E+05  2.644909500E+02  3.432564771E+02  2.934138716E+02  1.926097127E+02  2.039655011E-01 
        64  3.310586596E-02  1.296649637E-01  1.262581306E-01  1.081109786E+05  2.692186134E+02  3.433146811E+02  2.935135307E+02  1.981981525E+02  1.961605399E-01 
        65  3.306639982E-02  1.299493947E-01  1.292495641E-01  1.079484728E+05  2.714501573E+02  3.432758178E+02  2.934470842E+02  2.011312885E+02  1.947124937E-01 
        66  3.322486525E-02  1.302097713E-01  1.322380794E-01  1.078271628E+05  2.738824970E+02  3.428904705E+02  2.927888608E+02  2.018238973E+02  1.844546891E-01 
        67  3.356462385E-02  1.304573038E-01  1.352130229E-01  1.076894588E+05  2.739464298E+02  3.428052549E+02  2.926434005E+02  2.029306679E+02  1.902696465E-01 
        68  3.400410102E-02  1.306751199E-01  1.381765647E-01  1.075423239E+05  2.746164224E+02  3.426803007E+02  2.924299495E+02  2.037133422E+02  1.910751143E-01 
        69  3.451963359E-02  1.308741206E-01  1.411278790E-01  1.072865442E+05  2.753157871E+02  3.426272960E+02  2.923394856E+02  2.041496558E+02  1.906265728E-01 
        70  3.508991352E-02  1.310576265E-01  1.440660380E-01  1.069149833E+05  2.760725453E+02  3.425947475E+02  2.922839773E+02  2.052625980E+02  1.923466830E-01 
        71  3.570211579E-02  1.312503676E-01  1.470000000E-01  1.063065898E+05  2.780395927E+02  3.423555145E+02  2.918729134E+02  2.077530003E+02  1.913701482E-01 
        72 -2.843361623E-02  1.708417341E-01 -4.258217492E-02  8.217124658E+04  1.832157369E+02  3.300749407E+02  2.713115244E+02  3.437774649E+02  1.008727349E+00 
        73 -2.838826984E-02  1.709653765E-01 -3.916427879E-02  8.217023474E+04  1.840642688E+02  3.299949951E+02  2.711801136E+02  3.447991290E+02  1.007763156E+00 
        74 -2.835908450E-02  1.711140563E-01 -3.574649433E-02  8.230788184E+04  1.838264810E+02  3.301292319E+02  2.714010532E+02  3.432928586E+02  1.005941545E+00 
        75 -2.838361088E-02  1.712589164E-01 -3.232950605E-02  8.269895288E+04  1.844723325E+02  3.302452421E+02  2.715919800E+02  3.447423267E+02  1.006797090E+00 
        76 -2.841360827E-02  1.714319125E-01 -2.891476756E-02  8.315411963E+04  1.824249434E+02  3.306494770E+02  2.722571044E+02  3.403780351E+02  1.005951770E+00 
        77 -2.833774301E-02  1.716334782E-01 -2.549995819E-02  8.366297263E+04  1.814841437E+02  3.309667907E+02  2.727800143E+02  3.385608659E+02  1.006098161E+00 
        78 -2.791452343E-02  1.719215161E-01 -2.212016887E-02  8.403064453E+04  1.817268763E+02  3.309992142E+02  2.728334846E+02  3.412047863E+02  1.009694938E+00 
        79 -2.700703325E-02  1.722886754E-01 -1.884820631E-02  8.407203052E+04  1.805595822E+02  3.310610867E+02  2.729355135E+02  3.407465229E+02  1.012946118E+00 
        80 -2.544395246E-02  1.727209334E-01 -1.584518523E-02  8.330227161E+04  1.811733738E+02  3.306916280E+02  2.723267105E+02  3.420899112E+02  1.013039744E+00 
        81 -2.351536464E-02  1.732363399E-01 -1.306823492E-02  8.138733708E+04  1.850471724E+02  3.295877138E+02  2.705116823E+02  3.474331152E+02  1.009504975E+00 
        82 -2.134527601E-02  1.737374909E-01 -1.047435973E-02  7.881983037E+04  1.908847347E+02  3.280782924E+02  2.680406775E+02  3.553459319E+02  1.004473997E+00 
        83 -1.897326710E-02  1.742189522E-01 -8.035177519E-03  7.611931842E+04  1.978345893E+02  3.264873891E+02  2.654481024E+02  3.640489873E+02  9.982370911E-01 
        84 -1.652827274E-02  1.746780172E-01 -5.688541800E-03  7.403487231E+04  2.043077891E+02  3.251296892E+02  2.632452915E+02  3.693420315E+02  9.870999968E-01 
        85 -1.397929867E-02  1.751251779E-01 -3.446989688E-03  7.297749963E+04  2.080863452E+02  3.245617514E+02  2.623266306E+02  3.724299531E+02  9.804704674E-01 
        86 -1.139011487E-02  1.755573757E-01 -1.256774906E-03  7.364616370E+04  2.111873264E+02  3.247793241E+02  2.626792855E+02  3.710545592E+02  9.669189751E-01 
        87 -8.734274343E-03  1.759085237E-01  8.667805443E-04  7.783256921E+04  2.046867949E+02  3.275457191E+02  2.671798086E+02  3.589182606E+02  9.654678078E-01 
        88 -6.073383534E-03  1.762548475E-01  2.984781313E-03  8.800582758E+04  1.913756057E+02  3.331963611E+02  2.764783648E+02  3.322992640E+02  9.656238370E-01 
        89 -3.359730182E-03  1.765819110E-01  5.053045394E-03  9.783499457E+04  1.756519059E+02  3.382257879E+02  2.848795481E+02  3.057348852E+02  9.831796284E-01 
        90 -6.741955509E-04  1.768270807E-01  7.130208361E-03  9.695331859E+04  1.687975199E+02  3.376214185E+02  2.838621744E+02  3.118522706E+02  1.015126789E+00 
        91  2.027043660E-03  1.770783858E-01  9.208570588E-03  7.913493804E+04  1.924673596E+02  3.282264283E+02  2.682860785E+02  3.582259265E+02  1.006069533E+00 
        92  4.731686997E-03  1.772422585E-01  1.127155269E-02  7.415058698E+04  2.093365603E+02  3.251861343E+02  2.633381562E+02  3.712327522E+02  9.733109565E-01 
        93  7.454465044E-03  1.773874983E-01  1.334309669E-02  7.402933017E+04  2.086884538E+02  3.250015378E+02  2.630403007E+02  3.715687757E+02  9.764245073E-01 
        94  1.015989937E-02  1.775222933E-01  1.545596277E-02  7.085496179E+04  2.174550159E+02  3.230899585E+02  2.599603873E+02  3.820215375E+02  9.683729635E-01 
        95  1.284858280E-02  1.775661421E-01  1.756817794E-02  6.728528842E+04  2.297238214E+02  3.205478400E+02  2.558868864E+02  3.940834503E+02  9.529813123E-01 
        96  1.551966693E-02  1.776138061E-01  1.970369132E-02  6.430876508E+04  2.391782186E+02  3.184323771E+02  2.525189977E+02  4.025896044E+02  9.401456574E-01 
        97  1.817410325E-02  1.776258069E-01  2.186017323E-02  6.170624231E+04  2.457912486E+02  3.168965735E+02  2.500863938E+02  4.082713852E+02  9.309614189E-01 
        98  2.080993586E-02  1.775631240E-01  2.403936301E-02  5.979639001E+04  2.541048331E+02  3.154529629E+02  2.478160191E+02  4.156383305E+02  9.204714410E-01 
        99  2.341570779E-02  1.774969016E-01  2.625394818E-02  5.930460413E+04  2.591770287E+02  3.151629181E+02  2.473657203E+02  4.175849752E+02  9.082798120E-01 
       100  2.600295182E-02  1.773818036E-01  2.848806157E-02  6.096209009E+04  2.596338987E+02  3.166947994E+02  2.497825146E+02  4.111119375E+02  8.917664550E-01 
       101  2.856627515E-02  1.771883875E-01  3.074502562E-02  6.625197363E+04  2.555734406E+02  3.203535013E+02  2.556332922E+02  3.956066637E+02  8.725830279E-01 
       102  3.110662233E-02  1.769811535E-01  3.302644514E-02  7.478685425E+04  2.453028469E+02  3.260093651E+02  2.647528429E+02  3.689640779E+02  8.526923116E-01 
       103  3.362247542E-02  1.767159818E-01  3.532849163E-02  8.167755005E+04  2.410508480E+02  3.301510811E+02  2.714604869E+02  3.503856239E+02  8.293365352E-01 
       104  3.610895472E-02  1.763647845E-01  3.765120331E-02  8.281044751E+04  2.465050025E+02  3.306420112E+02  2.722510076E+02  3.491800737E+02  8.084891317E-01 
       105  3.856497337E-02  1.759966372E-01  4.000321012E-02  8.017477365E+04  2.557727989E+02  3.290806658E+02  2.696862377E+02  3.564513174E+02  7.907570624E-01 
       106  4.103059304E-02  1.755360248E-01  4.234569910E-02  7.790809006E+04  2.645795826E+02  3.276485583E+02  2.673396658E+02  3.649592987E+02  7.767133809E-01 
       107  4.340106546E-02  1.750377176E-01  4.474435622E-02  7.837949333E+04  2.673912002E+02  3.281810491E+02  2.682108345E+02  3.630166930E+02  7.634042527E-01 
       108  4.575540032E-02  1.745445103E-01  4.717695363E-02  8.189462915E+04  2.669226975E+02  3.302961116E+02  2.716848786E+02  3.528417101E+02  7.458559284E-01 
       109  4.807037784E-02  1.739953488E-01  4.963532790E-02  8.826867261E+04  2.628107386E+02  3.337149334E+02  2.773448534E+02  3.361863995E+02  7.302440852E-01 
       110  5.034733117E-02  1.734133857E-01  5.212084081E-02  9.508516650E+04  2.584568119E+02  3.371593876E+02  2.830926208E+02  3.170516777E+02  7.131263688E-01 
       111  5.258765486E-02  1.728405975E-01  5.464144749E-02  9.964351123E+04  2.573285446E+02  3.394083977E+02  2.868753014E+02  3.052985153E+02  6.982071139E-01 
       112  5.479076840E-02  1.722430532E-01  5.718902978E-02  1.024946526E+05  2.574117174E+02  3.408783636E+02  2.893641882E+02  2.988842812E+02  6.879943106E-01 
       113  5.694737683E-02  1.716020731E-01  5.976586917E-02  1.054132661E+05  2.569559841E+02  3.423559554E+02  2.918787100E+02  2.902760851E+02  6.772452258E-01 
       114  5.911848447E-02  1.709340834E-01  6.233872565E-02  1.088805885E+05  2.562737084E+02  3.438915307E+02  2.945015160E+02  2.812620266E+02  6.670740345E-01 
       115  6.119351897E-02  1.703313828E-01  6.496775561E-02  1.117123267E+05  2.549957542E+02  3.451516542E+02  2.966638861E+02  2.746554890E+02  6.633604802E-01 
       116  6.319798910E-02  1.696485115E-01  6.765543605E-02  1.137687516E+05  2.545553508E+02  3.459358945E+02  2.980130234E+02  2.703525610E+02  6.594246775E-01 
       117  6.520189851E-02  1.689621155E-01  7.034628384E-02  1.157279277E+05  2.540374727E+02  3.466708975E+02  2.992805967E+02  2.654180984E+02  6.555010751E-01 
       118  6.717992039E-02  1.682884043E-01  7.305807409E-02  1.172824717E+05  2.519191446E+02  3.473955002E+02  3.005332470E+02  2.595857821E+02  6.573824137E-01 
       119  6.910755662E-02  1.675987334E-01  7.579818779E-02  1.184715282E+05  2.491263881E+02  3.480280640E+02  3.016280811E+02  2.560972750E+02  6.651337254E-01 
       120  7.101404689E-02  1.668389198E-01  7.852135391E-02  1.194556891E+05  2.466215205E+02  3.484441841E+02  3.023499937E+02  2.544885356E+02  6.735655400E-01 
