nodenumber     x-coordinate     y-coordinate     z-coordinate         pressure velocity-magnitude      sound-speed      temperature rel-velocity-magnitude relative-velocity-angle 
         1 -2.216901913E-02  1.039879580E-01 -4.300600202E-02  8.754773471E+04  1.539565126E+02  3.330492180E+02  2.762228932E+02  2.357971016E+02  8.594176589E-01 
         2 -2.197401757E-02  1.042260031E-01 -4.002397295E-02  8.746462665E+04  1.544342752E+02  3.330053902E+02  2.761502007E+02  2.363396827E+02  8.589089822E-01 
         3 -2.150271627E-02  1.045375264E-01 -3.708169353E-02  8.736000330E+04  1.550390229E+02  3.329505279E+02  2.760592551E+02  2.369966574E+02  8.582046800E-01 
         4 -2.072290556E-02  1.049359494E-01 -3.421635317E-02  8.724972009E+04  1.556878872E+02  3.328940363E+02  2.759655619E+02  2.376989489E+02  8.574906895E-01 
         5 -1.964621854E-02  1.053757771E-01 -3.145501365E-02  8.714397925E+04  1.563605523E+02  3.328374004E+02  2.758716798E+02  2.384508152E+02  8.568817787E-01 
         6 -1.833909717E-02  1.058829391E-01 -2.880182754E-02  8.701197119E+04  1.571012869E+02  3.327680492E+02  2.757567286E+02  2.393667355E+02  8.565231822E-01 
         7 -1.686396899E-02  1.064019756E-01 -2.624136390E-02  8.682365161E+04  1.579848561E+02  3.326686468E+02  2.755920439E+02  2.403809929E+02  8.557512183E-01 
         8 -1.524276490E-02  1.069101094E-01 -2.376908005E-02  8.661355969E+04  1.589802828E+02  3.325549264E+02  2.754036541E+02  2.414965005E+02  8.547695335E-01 
         9 -1.353040875E-02  1.074492491E-01 -2.136449246E-02  8.638839319E+04  1.601519301E+02  3.324304171E+02  2.751975405E+02  2.427944131E+02  8.535350440E-01 
        10 -1.175719847E-02  1.079385502E-01 -1.899452623E-02  8.616207373E+04  1.614560744E+02  3.323083663E+02  2.749954641E+02  2.439578974E+02  8.511206107E-01 
        11 -9.920451205E-03  1.084473482E-01 -1.667649769E-02  8.606538043E+04  1.625801405E+02  3.322612215E+02  2.749174311E+02  2.446676581E+02  8.480783531E-01 
        12 -8.053093039E-03  1.089314126E-01 -1.437870322E-02  8.620534909E+04  1.630931267E+02  3.323386178E+02  2.750454961E+02  2.444971534E+02  8.452946665E-01 
        13 -6.139911673E-03  1.093816015E-01 -1.211111235E-02  8.661088403E+04  1.628024120E+02  3.325548143E+02  2.754034529E+02  2.433796825E+02  8.435143977E-01 
        14 -4.213714023E-03  1.098625599E-01 -9.853315987E-03  8.749206836E+04  1.606116753E+02  3.330244160E+02  2.761818771E+02  2.406170673E+02  8.464843966E-01 
        15 -2.267252226E-03  1.102821410E-01 -7.616721013E-03  8.854280615E+04  1.565411100E+02  3.335710030E+02  2.770892811E+02  2.371651726E+02  8.577999733E-01 
        16 -3.058463972E-04  1.106716081E-01 -5.380345181E-03  8.934937671E+04  1.500077152E+02  3.339812870E+02  2.777714548E+02  2.341284418E+02  8.844104968E-01 
        17  1.649896870E-03  1.110991589E-01 -3.144821902E-03  8.750636133E+04  1.465267179E+02  3.330228410E+02  2.761810191E+02  2.425349400E+02  9.326089658E-01 
        18  3.605378217E-03  1.114680886E-01 -8.997268064E-04  7.572039502E+04  1.749941852E+02  3.262998595E+02  2.651424398E+02  2.845946221E+02  9.371974934E-01 
        19  5.548952344E-03  1.118349081E-01  1.356589372E-03  6.974708990E+04  2.069505397E+02  3.228418264E+02  2.595529706E+02  3.043674359E+02  8.444497865E-01 
        20  7.472030685E-03  1.121892539E-01  3.633809071E-03  7.273585158E+04  2.114083729E+02  3.246004499E+02  2.623917440E+02  2.971207435E+02  7.902013499E-01 
        21  9.366594022E-03  1.125505666E-01  5.932977735E-03  7.646321545E+04  2.089342656E+02  3.267788908E+02  2.659236934E+02  2.864678280E+02  7.613802864E-01 
        22  1.122147558E-02  1.129077905E-01  8.263617067E-03  7.877470900E+04  2.090470832E+02  3.281697952E+02  2.681906014E+02  2.782818204E+02  7.299501104E-01 
        23  1.303284284E-02  1.132507638E-01  1.062953057E-02  8.032770244E+04  2.112749492E+02  3.291443962E+02  2.697850973E+02  2.721005178E+02  6.960055126E-01 
        24  1.479928419E-02  1.136234762E-01  1.303021626E-02  8.156295239E+04  2.155324100E+02  3.298540630E+02  2.709495921E+02  2.678829326E+02  6.591591497E-01 
        25  1.649617427E-02  1.139938279E-01  1.547769530E-02  8.265827448E+04  2.204087877E+02  3.304085593E+02  2.718611324E+02  2.645481813E+02  6.224596193E-01 
        26  1.811807173E-02  1.143837002E-01  1.797032872E-02  8.341446997E+04  2.259302647E+02  3.307309351E+02  2.723914189E+02  2.626289239E+02  5.876670489E-01 
        27  1.968166241E-02  1.148013513E-01  2.049621310E-02  8.354072131E+04  2.329861276E+02  3.307069688E+02  2.723518286E+02  2.630583670E+02  5.534192598E-01 
        28  2.119101764E-02  1.152299366E-01  2.305322148E-02  8.303298338E+04  2.415415400E+02  3.304020345E+02  2.718498091E+02  2.655579533E+02  5.187351703E-01 
        29  2.266338778E-02  1.156643914E-01  2.563116057E-02  8.241658087E+04  2.506133394E+02  3.300017307E+02  2.711916881E+02  2.689007986E+02  4.845171594E-01 
        30  2.408077791E-02  1.161159634E-01  2.823658064E-02  8.190038928E+04  2.587290354E+02  3.297337482E+02  2.707512493E+02  2.714876211E+02  4.528297824E-01 
        31  2.544088325E-02  1.165921105E-01  3.086849856E-02  8.136326514E+04  2.666082482E+02  3.294667091E+02  2.703129466E+02  2.741079822E+02  4.228315460E-01 
        32  2.674433127E-02  1.170738851E-01  3.352942364E-02  8.077997473E+04  2.744920402E+02  3.291888757E+02  2.698571994E+02  2.769855702E+02  3.939798516E-01 
        33  2.797950643E-02  1.175445507E-01  3.622298897E-02  8.022574567E+04  2.823185364E+02  3.289399951E+02  2.694491647E+02  2.798112342E+02  3.652950886E-01 
        34  2.916313541E-02  1.180056499E-01  3.893937175E-02  7.993194868E+04  2.895539052E+02  3.288112137E+02  2.692382230E+02  2.818159359E+02  3.365712733E-01 
        35  3.031249539E-02  1.184785399E-01  4.167042727E-02  8.010439578E+04  2.954136838E+02  3.288931546E+02  2.693724118E+02  2.823336422E+02  3.093938893E-01 
        36  3.139929926E-02  1.189405785E-01  4.442941843E-02  8.041996167E+04  3.007269483E+02  3.290894634E+02  2.696941127E+02  2.822794074E+02  2.828329566E-01 
        37  3.242013936E-02  1.193808800E-01  4.721660669E-02  8.091615186E+04  3.058532359E+02  3.293228010E+02  2.700769386E+02  2.815272546E+02  2.542013504E-01 
        38  3.340677803E-02  1.198011670E-01  5.002067675E-02  8.206743457E+04  3.087818632E+02  3.299330434E+02  2.710790744E+02  2.783389186E+02  2.274413478E-01 
        39  3.430413654E-02  1.201853153E-01  5.285529857E-02  8.356942261E+04  3.104984293E+02  3.308127270E+02  2.725269861E+02  2.738097401E+02  2.016920317E-01 
        40  3.515433510E-02  1.205874318E-01  5.570324370E-02  8.542644434E+04  3.109505138E+02  3.318608456E+02  2.742570553E+02  2.681386452E+02  1.782451868E-01 
        41  3.592907297E-02  1.209644065E-01  5.857535950E-02  8.758491431E+04  3.099451222E+02  3.330415354E+02  2.762124629E+02  2.614564376E+02  1.588334641E-01 
        42  3.664355424E-02  1.213334730E-01  6.146049591E-02  8.992541003E+04  3.075127850E+02  3.342490640E+02  2.782190790E+02  2.541648893E+02  1.451959542E-01 
        43  3.727845098E-02  1.217084379E-01  6.437276718E-02  9.220419312E+04  3.041580076E+02  3.354171791E+02  2.801667719E+02  2.470921974E+02  1.381437602E-01 
        44  3.781448665E-02  1.220744111E-01  6.730672953E-02  9.411934473E+04  3.005166655E+02  3.364538851E+02  2.819008455E+02  2.410664601E+02  1.375549980E-01 
        45  3.826762164E-02  1.224563704E-01  7.025293559E-02  9.546043158E+04  2.975655007E+02  3.372166326E+02  2.831797903E+02  2.370643542E+02  1.416238715E-01 
        46  3.856443464E-02  1.228195695E-01  7.317567491E-02  9.624743750E+04  2.957095413E+02  3.377032013E+02  2.839976120E+02  2.349487228E+02  1.469355524E-01 
        47  3.882754171E-02  1.231963568E-01  7.616928387E-02  9.664619186E+04  2.935408919E+02  3.383886679E+02  2.851527020E+02  2.325193371E+02  1.532333260E-01 
        48  3.896508106E-02  1.235573809E-01  7.913505459E-02  9.680144141E+04  2.896852303E+02  3.393547897E+02  2.867937202E+02  2.267127304E+02  1.583024040E-01 
        49  3.903512947E-02  1.239238609E-01  8.213137167E-02  9.682382056E+04  2.810552003E+02  3.411750448E+02  2.899031470E+02  2.123655342E+02  1.677814757E-01 
        50  3.900153017E-02  1.243001337E-01  8.510504302E-02  9.667081476E+04  2.658408844E+02  3.442764287E+02  2.952147850E+02  1.851590822E+02  1.768093404E-01 
        51  3.889299026E-02  1.246700891E-01  8.806950082E-02  9.648325616E+04  2.490770187E+02  3.479396634E+02  3.015310948E+02  1.427452004E+02  1.609948362E-01 
        52  3.870303970E-02  1.250405990E-01  9.105247242E-02  9.651947485E+04  2.403844929E+02  3.507417698E+02  3.063777933E+02  1.038945689E+02  7.174972806E-02 
        53  3.847530202E-02  1.253810613E-01  9.402032493E-02  9.683513480E+04  2.373980869E+02  3.522698896E+02  3.090483941E+02  7.035418701E+01 -1.569431377E-01 
        54  3.809583015E-02  1.257752167E-01  9.695318516E-02  9.820874316E+04  2.388715096E+02  3.530098000E+02  3.103356667E+02  4.782488203E+01 -9.223970696E-01 
        55  3.767199372E-02  1.261489404E-01  9.992435767E-02  1.000610073E+05  2.448925381E+02  3.529299517E+02  3.101874423E+02  4.232370031E+01 -1.237341005E+00 
        56  3.723780727E-02  1.265196365E-01  1.028569506E-01  1.026070313E+05  2.413622988E+02  3.523174417E+02  3.091135074E+02  5.715048037E+01 -5.684876831E-01 
        57  3.672955052E-02  1.269046997E-01  1.057947981E-01  1.051876136E+05  2.367740204E+02  3.509185352E+02  3.066707397E+02  9.662127161E+01  3.103359917E-02 
        58  3.615520807E-02  1.273091289E-01  1.087154776E-01  1.068613057E+05  2.441525202E+02  3.484831915E+02  3.024344225E+02  1.420245275E+02  1.636872762E-01 
        59  3.556812424E-02  1.277144368E-01  1.116309472E-01  1.075230161E+05  2.556112392E+02  3.459156265E+02  2.979880834E+02  1.743829449E+02  1.937870734E-01 
        60  3.495651588E-02  1.281329458E-01  1.145394580E-01  1.077196917E+05  2.634161220E+02  3.441343055E+02  2.949194727E+02  1.899441018E+02  1.965789408E-01 
        61  3.433795015E-02  1.285471243E-01  1.174457346E-01  1.078276416E+05  2.672721870E+02  3.432863894E+02  2.934651809E+02  1.959071467E+02  1.945204826E-01 
        62  3.376061330E-02  1.289460490E-01  1.203607660E-01  1.079384644E+05  2.693751066E+02  3.430541139E+02  2.930679412E+02  1.980743833E+02  1.907182324E-01 
        63  3.331803132E-02  1.293309423E-01  1.232882868E-01  1.080021297E+05  2.709888123E+02  3.430440885E+02  2.930507447E+02  1.992744058E+02  1.868952236E-01 
        64  3.310586596E-02  1.296649637E-01  1.262581306E-01  1.079571387E+05  2.723242812E+02  3.430647483E+02  2.930860672E+02  2.001959995E+02  1.838917170E-01 
        65  3.306639982E-02  1.299493947E-01  1.292495641E-01  1.078586421E+05  2.733864287E+02  3.430706041E+02  2.930960765E+02  2.010694073E+02  1.823964178E-01 
        66  3.322486525E-02  1.302097713E-01  1.322380794E-01  1.077082967E+05  2.743943180E+02  3.430243081E+02  2.930169171E+02  2.021553461E+02  1.821757541E-01 
        67  3.356462385E-02  1.304573038E-01  1.352130229E-01  1.075607965E+05  2.754194743E+02  3.429667839E+02  2.929186284E+02  2.034716088E+02  1.830128567E-01 
        68  3.400410102E-02  1.306751199E-01  1.381765647E-01  1.073733511E+05  2.764922798E+02  3.428835692E+02  2.927765548E+02  2.049411001E+02  1.840036274E-01 
        69  3.451963359E-02  1.308741206E-01  1.411278790E-01  1.070941947E+05  2.775639701E+02  3.427597647E+02  2.925651746E+02  2.064930682E+02  1.853510977E-01 
        70  3.508991352E-02  1.310576265E-01  1.440660380E-01  1.067326719E+05  2.787310407E+02  3.425995564E+02  2.922917762E+02  2.081361487E+02  1.864762874E-01 
        71  3.570211579E-02  1.312503676E-01  1.470000000E-01  1.063195469E+05  2.801295967E+02  3.424114113E+02  2.919711685E+02  2.101767826E+02  1.873755883E-01 
        72 -2.843361623E-02  1.708417341E-01 -4.258217492E-02  8.204143262E+04  1.836357245E+02  3.299862947E+02  2.711656656E+02  3.441189041E+02  1.007777963E+00 
        73 -2.838826984E-02  1.709653765E-01 -3.916427879E-02  8.202856830E+04  1.844124815E+02  3.299359746E+02  2.710830436E+02  3.448905401E+02  1.006539064E+00 
        74 -2.835908450E-02  1.711140563E-01 -3.574649433E-02  8.236205273E+04  1.837455258E+02  3.301686742E+02  2.714655664E+02  3.438146081E+02  1.006862193E+00 
        75 -2.838361088E-02  1.712589164E-01 -3.232950605E-02  8.300324829E+04  1.827113585E+02  3.305465336E+02  2.720873432E+02  3.421006794E+02  1.007372614E+00 
        76 -2.841360827E-02  1.714319125E-01 -2.891476756E-02  8.374892810E+04  1.817465253E+02  3.309329090E+02  2.727237930E+02  3.407132478E+02  1.008243272E+00 
        77 -2.833774301E-02  1.716334782E-01 -2.549995819E-02  8.426842813E+04  1.805652873E+02  3.312463487E+02  2.732404722E+02  3.390028946E+02  1.009339123E+00 
        78 -2.791452343E-02  1.719215161E-01 -2.212016887E-02  8.447436621E+04  1.799967976E+02  3.313531818E+02  2.734168253E+02  3.388619518E+02  1.011075377E+00 
        79 -2.700703325E-02  1.722886754E-01 -1.884820631E-02  8.426226782E+04  1.797431035E+02  3.312299576E+02  2.732136173E+02  3.398240566E+02  1.013713889E+00 
        80 -2.544395246E-02  1.727209334E-01 -1.584518523E-02  8.321142328E+04  1.811903616E+02  3.306365554E+02  2.722358665E+02  3.425828316E+02  1.013715119E+00 
        81 -2.351536464E-02  1.732363399E-01 -1.306823492E-02  8.127067491E+04  1.849843675E+02  3.295165623E+02  2.703953399E+02  3.488383955E+02  1.012083410E+00 
        82 -2.134527601E-02  1.737374909E-01 -1.047435973E-02  7.866206535E+04  1.910870494E+02  3.279660153E+02  2.678572946E+02  3.567796810E+02  1.006328217E+00 
        83 -1.897326710E-02  1.742189522E-01 -8.035177519E-03  7.556062125E+04  1.992836578E+02  3.260923483E+02  2.648059777E+02  3.658636659E+02  9.964832338E-01 
        84 -1.652827274E-02  1.746780172E-01 -5.688541800E-03  7.304425714E+04  2.068503551E+02  3.245247178E+02  2.622657869E+02  3.727369733E+02  9.849608792E-01 
        85 -1.397929867E-02  1.751251779E-01 -3.446989688E-03  7.237469556E+04  2.103558207E+02  3.241206946E+02  2.616122074E+02  3.746181760E+02  9.766947515E-01 
        86 -1.139011487E-02  1.755573757E-01 -1.256774906E-03  7.408322058E+04  2.094162948E+02  3.251553168E+02  2.632879982E+02  3.700742350E+02  9.704996739E-01 
        87 -8.734274343E-03  1.759085237E-01  8.667805443E-04  7.940636847E+04  2.035438647E+02  3.282753353E+02  2.683702853E+02  3.562256248E+02  9.637518283E-01 
        88 -6.073383534E-03  1.762548475E-01  2.984781313E-03  8.853025128E+04  1.914027014E+02  3.334597940E+02  2.769116822E+02  3.319230711E+02  9.633915168E-01 
        89 -3.359730182E-03  1.765819110E-01  5.053045394E-03  9.833794867E+04  1.749562987E+02  3.384650350E+02  2.852837358E+02  3.041880064E+02  9.829442250E-01 
        90 -6.741955509E-04  1.768270807E-01  7.130208361E-03  9.780489885E+04  1.648131393E+02  3.380785318E+02  2.846320284E+02  3.049135085E+02  1.019355618E+00 
        91  2.027043660E-03  1.770783858E-01  9.208570588E-03  7.915044894E+04  1.936616038E+02  3.280384374E+02  2.679797901E+02  3.589843500E+02  1.001860480E+00 
        92  4.731686997E-03  1.772422585E-01  1.127155269E-02  7.246564499E+04  2.136083347E+02  3.243489891E+02  2.619820156E+02  3.774940254E+02  9.711498666E-01 
        93  7.454465044E-03  1.773874983E-01  1.334309669E-02  7.299245450E+04  2.108927558E+02  3.244112515E+02  2.620841010E+02  3.747281500E+02  9.748909916E-01 
        94  1.015989937E-02  1.775222933E-01  1.545596277E-02  7.052238883E+04  2.184083262E+02  3.228202973E+02  2.595241139E+02  3.817140577E+02  9.639552322E-01 
        95  1.284858280E-02  1.775661421E-01  1.756817794E-02  6.713216812E+04  2.290608867E+02  3.205877031E+02  2.559468628E+02  3.923263557E+02  9.507741695E-01 
        96  1.551966693E-02  1.776138061E-01  1.970369132E-02  6.420841791E+04  2.368235536E+02  3.186993358E+02  2.529398937E+02  3.999812751E+02  9.417296955E-01 
        97  1.817410325E-02  1.776258069E-01  2.186017323E-02  6.183903455E+04  2.447871950E+02  3.170137620E+02  2.502704730E+02  4.072799788E+02  9.316715468E-01 
        98  2.080993586E-02  1.775631240E-01  2.403936301E-02  6.019509167E+04  2.524092889E+02  3.158296995E+02  2.484012084E+02  4.129738417E+02  9.192603510E-01 
        99  2.341570779E-02  1.774969016E-01  2.625394818E-02  5.979794897E+04  2.575978208E+02  3.156263170E+02  2.480810857E+02  4.147716703E+02  9.059841428E-01 
       100  2.600295182E-02  1.773818036E-01  2.848806157E-02  6.160482910E+04  2.588006067E+02  3.170502586E+02  2.503399277E+02  4.099293671E+02  8.909294680E-01 
       101  2.856627515E-02  1.771883875E-01  3.074502562E-02  6.702581836E+04  2.538109837E+02  3.209218931E+02  2.565340843E+02  3.940025311E+02  8.732456528E-01 
       102  3.110662233E-02  1.769811535E-01  3.302644514E-02  7.518310107E+04  2.457992172E+02  3.262188463E+02  2.650741682E+02  3.706318235E+02  8.519841246E-01 
       103  3.362247542E-02  1.767159818E-01  3.532849163E-02  8.160995154E+04  2.431994042E+02  3.299408255E+02  2.711105995E+02  3.533127689E+02  8.266508728E-01 
       104  3.610895472E-02  1.763647845E-01  3.765120331E-02  8.256939868E+04  2.484994512E+02  3.303281922E+02  2.717329097E+02  3.515854268E+02  8.054421023E-01 
       105  3.856497337E-02  1.759966372E-01  4.000321012E-02  7.997820139E+04  2.561200693E+02  3.289851766E+02  2.695265077E+02  3.584016833E+02  7.924029920E-01 
       106  4.103059304E-02  1.755360248E-01  4.234569910E-02  7.805404847E+04  2.630940506E+02  3.279699918E+02  2.678626255E+02  3.634656676E+02  7.783332893E-01 
       107  4.340106546E-02  1.750377176E-01  4.474435622E-02  7.914323882E+04  2.667983416E+02  3.285222257E+02  2.687678372E+02  3.616317201E+02  7.623746244E-01 
       108  4.575540032E-02  1.745445103E-01  4.717695363E-02  8.350515686E+04  2.651975124E+02  3.309166713E+02  2.727073998E+02  3.499975295E+02  7.463016408E-01 
       109  4.807037784E-02  1.739953488E-01  4.963532790E-02  8.975438306E+04  2.602740269E+02  3.342761230E+02  2.782737160E+02  3.326950665E+02  7.325026840E-01 
       110  5.034733117E-02  1.734133857E-01  5.212084081E-02  9.514926123E+04  2.575338593E+02  3.370101013E+02  2.828368721E+02  3.179110622E+02  7.171372510E-01 
       111  5.258765486E-02  1.728405975E-01  5.464144749E-02  9.851648633E+04  2.582159214E+02  3.386981773E+02  2.856745186E+02  3.096059361E+02  7.013763376E-01 
       112  5.479076840E-02  1.722430532E-01  5.718902978E-02  1.011508816E+05  2.592572994E+02  3.400517302E+02  2.879623537E+02  3.033216391E+02  6.878782772E-01 
       113  5.694737683E-02  1.716020731E-01  5.976586917E-02  1.042347136E+05  2.586200686E+02  3.416198058E+02  2.906241391E+02  2.948085880E+02  6.775518861E-01 
       114  5.911848447E-02  1.709340834E-01  6.233872565E-02  1.077130224E+05  2.568930142E+02  3.432758334E+02  2.934479494E+02  2.854081018E+02  6.702016600E-01 
       115  6.119351897E-02  1.703313828E-01  6.496775561E-02  1.107871636E+05  2.555421147E+02  3.446002617E+02  2.957164593E+02  2.771334195E+02  6.644410864E-01 
       116  6.319798910E-02  1.696485115E-01  6.765543605E-02  1.134549425E+05  2.542290483E+02  3.457046800E+02  2.976146069E+02  2.700749044E+02  6.603788715E-01 
       117  6.520189851E-02  1.689621155E-01  7.034628384E-02  1.154924946E+05  2.536099482E+02  3.465815458E+02  2.991259737E+02  2.647581377E+02  6.563127600E-01 
       118  6.717992039E-02  1.682884043E-01  7.305807409E-02  1.172258804E+05  2.519622641E+02  3.474170828E+02  3.005699902E+02  2.599310398E+02  6.573389359E-01 
       119  6.910755662E-02  1.675987334E-01  7.579818779E-02  1.186263954E+05  2.508288214E+02  3.479516943E+02  3.014956307E+02  2.561618147E+02  6.580795241E-01 
       120  7.101404689E-02  1.668389198E-01  7.852135391E-02  1.196206418E+05  2.478871709E+02  3.483843241E+02  3.022459261E+02  2.533366950E+02  6.670002518E-01 
