nodenumber     x-coordinate     y-coordinate     z-coordinate         pressure velocity-magnitude      sound-speed      temperature rel-velocity-magnitude relative-velocity-angle 
         1 -2.216901913E-02  1.039879580E-01 -4.300600202E-02  8.756917398E+04  1.536375937E+02  3.330810952E+02  2.762758100E+02  2.354321234E+02  8.599318617E-01 
         2 -2.197401757E-02  1.042260031E-01 -4.002397295E-02  8.747320450E+04  1.545802496E+02  3.329962527E+02  2.761350938E+02  2.365989997E+02  8.590803035E-01 
         3 -2.150271627E-02  1.045375264E-01 -3.708169353E-02  8.735537592E+04  1.550932164E+02  3.329384637E+02  2.760392942E+02  2.369921407E+02  8.579624933E-01 
         4 -2.072290556E-02  1.049359494E-01 -3.421635317E-02  8.722056787E+04  1.556604857E+02  3.328893323E+02  2.759578414E+02  2.374813757E+02  8.569358988E-01 
         5 -1.964621854E-02  1.053757771E-01 -3.145501365E-02  8.710649194E+04  1.562405181E+02  3.328364582E+02  2.758701935E+02  2.383984146E+02  8.575030603E-01 
         6 -1.833909717E-02  1.058829391E-01 -2.880182754E-02  8.696566064E+04  1.572399101E+02  3.327388935E+02  2.757085509E+02  2.395873051E+02  8.566536028E-01 
         7 -1.686396899E-02  1.064019756E-01 -2.624136390E-02  8.679289429E+04  1.580392509E+02  3.326495628E+02  2.755605164E+02  2.403394976E+02  8.553651683E-01 
         8 -1.524276490E-02  1.069101094E-01 -2.376908005E-02  8.654007153E+04  1.589779127E+02  3.325237541E+02  2.753520904E+02  2.414123445E+02  8.545356635E-01 
         9 -1.353040875E-02  1.074492491E-01 -2.136449246E-02  8.633927661E+04  1.601731412E+02  3.324120836E+02  2.751671162E+02  2.426668177E+02  8.530060872E-01 
        10 -1.175719847E-02  1.079385502E-01 -1.899452623E-02  8.617482666E+04  1.615883678E+02  3.322983849E+02  2.749789500E+02  2.441599858E+02  8.511520205E-01 
        11 -9.920451205E-03  1.084473482E-01 -1.667649769E-02  8.607829453E+04  1.627690014E+02  3.322490542E+02  2.748973248E+02  2.449342259E+02  8.480390059E-01 
        12 -8.053093039E-03  1.089314126E-01 -1.437870322E-02  8.621285645E+04  1.630778624E+02  3.323556985E+02  2.750737536E+02  2.444424764E+02  8.451609886E-01 
        13 -6.139911673E-03  1.093816015E-01 -1.211111235E-02  8.672162378E+04  1.625020547E+02  3.326175737E+02  2.755074606E+02  2.430675683E+02  8.441096675E-01 
        14 -4.213714023E-03  1.098625599E-01 -9.853315987E-03  8.757726221E+04  1.602535372E+02  3.330795193E+02  2.762733727E+02  2.403129272E+02  8.475151211E-01 
        15 -2.267252226E-03  1.102821410E-01 -7.616721013E-03  8.855866895E+04  1.565856018E+02  3.335639076E+02  2.770776329E+02  2.372838688E+02  8.580101654E-01 
        16 -3.058463972E-04  1.106716081E-01 -5.380345181E-03  8.944618311E+04  1.499322944E+02  3.340234842E+02  2.778417082E+02  2.340718966E+02  8.846000265E-01 
        17  1.649896870E-03  1.110991589E-01 -3.144821902E-03  8.724390918E+04  1.463895549E+02  3.328766718E+02  2.759391961E+02  2.432371831E+02  9.364652764E-01 
        18  3.605378217E-03  1.114680886E-01 -8.997268064E-04  7.566512329E+04  1.769765213E+02  3.260670929E+02  2.647651110E+02  2.866106081E+02  9.354142323E-01 
        19  5.548952344E-03  1.118349081E-01  1.356589372E-03  6.989552240E+04  2.120855550E+02  3.225780804E+02  2.591307216E+02  3.117329707E+02  8.486099453E-01 
        20  7.472030685E-03  1.121892539E-01  3.633809071E-03  7.290342354E+04  2.098462020E+02  3.249324319E+02  2.629288390E+02  2.939753572E+02  7.861065893E-01 
        21  9.366594022E-03  1.125505666E-01  5.932977735E-03  7.660187933E+04  2.071373399E+02  3.271007226E+02  2.664472158E+02  2.826164756E+02  7.559473589E-01 
        22  1.122147558E-02  1.129077905E-01  8.263617067E-03  7.897448092E+04  2.073440373E+02  3.285306264E+02  2.687809512E+02  2.754409643E+02  7.282180592E-01 
        23  1.303284284E-02  1.132507638E-01  1.062953057E-02  8.056994261E+04  2.098809448E+02  3.294451795E+02  2.702782920E+02  2.697119191E+02  6.949966025E-01 
        24  1.479928419E-02  1.136234762E-01  1.303021626E-02  8.179325117E+04  2.145884322E+02  3.300743610E+02  2.713117549E+02  2.663069028E+02  6.590273511E-01 
        25  1.649617427E-02  1.139938279E-01  1.547769530E-02  8.282632410E+04  2.193164814E+02  3.306241980E+02  2.722165203E+02  2.635123911E+02  6.248347363E-01 
        26  1.811807173E-02  1.143837002E-01  1.797032872E-02  8.347538586E+04  2.246801732E+02  3.309209242E+02  2.727049947E+02  2.617912335E+02  5.915654991E-01 
        27  1.968166241E-02  1.148013513E-01  2.049621310E-02  8.348809021E+04  2.321664212E+02  3.307971818E+02  2.725011711E+02  2.626524835E+02  5.569089027E-01 
        28  2.119101764E-02  1.152299366E-01  2.305322148E-02  8.295268998E+04  2.409078726E+02  3.304853057E+02  2.719873752E+02  2.655915429E+02  5.224513332E-01 
        29  2.266338778E-02  1.156643914E-01  2.563116057E-02  8.238609467E+04  2.494842625E+02  3.301873338E+02  2.714974176E+02  2.679524367E+02  4.871785152E-01 
        30  2.408077791E-02  1.161159634E-01  2.823658064E-02  8.190543982E+04  2.580251801E+02  3.298516295E+02  2.709457114E+02  2.705365381E+02  4.534085756E-01 
        31  2.544088325E-02  1.165921105E-01  3.086849856E-02  8.136897949E+04  2.666891253E+02  3.294320841E+02  2.702574315E+02  2.741633925E+02  4.229412628E-01 
        32  2.674433127E-02  1.170738851E-01  3.352942364E-02  8.077379541E+04  2.748424909E+02  3.290912442E+02  2.696983654E+02  2.778797522E+02  3.955337857E-01 
        33  2.797950643E-02  1.175445507E-01  3.622298897E-02  8.020223526E+04  2.822943727E+02  3.289080849E+02  2.693976440E+02  2.806480800E+02  3.683701319E-01 
        34  2.916313541E-02  1.180056499E-01  3.893937175E-02  7.985089461E+04  2.895043504E+02  3.288067046E+02  2.692312007E+02  2.823049408E+02  3.384133813E-01 
        35  3.031249539E-02  1.184785399E-01  4.167042727E-02  7.992165146E+04  2.964014195E+02  3.287655864E+02  2.691639953E+02  2.833700209E+02  3.079308573E-01 
        36  3.139929926E-02  1.189405785E-01  4.442941843E-02  8.019137579E+04  3.021784276E+02  3.289610703E+02  2.694843621E+02  2.834570453E+02  2.794639925E-01 
        37  3.242013936E-02  1.193808800E-01  4.721660669E-02  8.079634394E+04  3.071996446E+02  3.293594196E+02  2.701371162E+02  2.826396954E+02  2.510831836E-01 
        38  3.340677803E-02  1.198011670E-01  5.002067675E-02  8.211894351E+04  3.099861491E+02  3.300802815E+02  2.713212211E+02  2.794538742E+02  2.251677237E-01 
        39  3.430413654E-02  1.201853153E-01  5.285529857E-02  8.385455151E+04  3.109168425E+02  3.310796528E+02  2.729673281E+02  2.742650642E+02  2.010868881E-01 
        40  3.515433510E-02  1.205874318E-01  5.570324370E-02  8.596891406E+04  3.105016327E+02  3.322766781E+02  2.749454193E+02  2.677229004E+02  1.789682554E-01 
        41  3.592907297E-02  1.209644065E-01  5.857535950E-02  8.832315747E+04  3.088734899E+02  3.335413113E+02  2.770422792E+02  2.603382583E+02  1.603100500E-01 
        42  3.664355424E-02  1.213334730E-01  6.146049591E-02  9.074974744E+04  3.059587808E+02  3.347281208E+02  2.790170512E+02  2.525180340E+02  1.474525833E-01 
        43  3.727845098E-02  1.217084379E-01  6.437276718E-02  9.299695898E+04  3.021212139E+02  3.357779312E+02  2.807693930E+02  2.450936136E+02  1.419738494E-01 
        44  3.781448665E-02  1.220744111E-01  6.730672953E-02  9.478097998E+04  2.983253126E+02  3.366518736E+02  2.822320547E+02  2.392786183E+02  1.433983273E-01 
        45  3.826762164E-02  1.224563704E-01  7.025293559E-02  9.596201324E+04  2.955048277E+02  3.372768102E+02  2.832804811E+02  2.356863612E+02  1.485883656E-01 
        46  3.856443464E-02  1.228195695E-01  7.317567491E-02  9.661631250E+04  2.936243896E+02  3.377309265E+02  2.840442123E+02  2.337667084E+02  1.550008692E-01 
        47  3.882754171E-02  1.231963568E-01  7.616928387E-02  9.686849945E+04  2.917720814E+02  3.384223915E+02  2.852101294E+02  2.314558886E+02  1.602152929E-01 
        48  3.896508106E-02  1.235573809E-01  7.913505459E-02  9.681512695E+04  2.877568855E+02  3.395575027E+02  2.871403542E+02  2.246505165E+02  1.638008468E-01 
        49  3.903512947E-02  1.239238609E-01  8.213137167E-02  9.663440137E+04  2.773660686E+02  3.417341042E+02  2.908614197E+02  2.064544659E+02  1.743843933E-01 
        50  3.900153017E-02  1.243001337E-01  8.510504302E-02  9.629591339E+04  2.598628708E+02  3.452040575E+02  2.968092401E+02  1.739308295E+02  1.858137790E-01 
        51  3.889299026E-02  1.246700891E-01  8.806950082E-02  9.598893115E+04  2.429540479E+02  3.487562733E+02  3.029389920E+02  1.279201832E+02  1.649537262E-01 
        52  3.870303970E-02  1.250405990E-01  9.105247242E-02  9.587970972E+04  2.353789010E+02  3.513305883E+02  3.073985147E+02  8.647259367E+01  4.042218221E-02 
        53  3.847530202E-02  1.253810613E-01  9.402032493E-02  9.629788989E+04  2.365752867E+02  3.523055714E+02  3.091024557E+02  5.277927104E+01 -4.628099003E-01 
        54  3.809583015E-02  1.257752167E-01  9.695318516E-02  9.727694727E+04  2.383037720E+02  3.528586235E+02  3.100654526E+02  4.127802944E+01 -1.651681215E+00 
        55  3.767199372E-02  1.261489404E-01  9.992435767E-02  9.835906299E+04  2.478673639E+02  3.524556561E+02  3.093546691E+02  4.752804756E+01 -1.919194348E+00 
        56  3.723780727E-02  1.265196365E-01  1.028569506E-01  9.974426364E+04  2.503178227E+02  3.511150087E+02  3.070060362E+02  6.895257328E+01 -1.055045906E+00 
        57  3.672955052E-02  1.269046997E-01  1.057947981E-01  1.017416384E+05  2.373822622E+02  3.496623096E+02  3.044700756E+02  1.083500862E+02  4.376087943E-02 
        58  3.615520807E-02  1.273091289E-01  1.087154776E-01  1.046300105E+05  2.331499496E+02  3.474020367E+02  3.005499220E+02  1.488058577E+02  2.839895664E-01 
        59  3.556812424E-02  1.277144368E-01  1.116309472E-01  1.069933293E+05  2.431500163E+02  3.450527534E+02  2.964964986E+02  1.750612413E+02  2.795454464E-01 
        60  3.495651588E-02  1.281329458E-01  1.145394580E-01  1.080103784E+05  2.549668779E+02  3.438980970E+02  2.945149126E+02  1.859653726E+02  2.367209969E-01 
        61  3.433795015E-02  1.285471243E-01  1.174457346E-01  1.080318785E+05  2.651888673E+02  3.432559853E+02  2.934148035E+02  1.925794132E+02  1.963241317E-01 
        62  3.376061330E-02  1.289460490E-01  1.203607660E-01  1.079681099E+05  2.689770093E+02  3.431242135E+02  2.931885855E+02  1.957723947E+02  1.856487989E-01 
        63  3.331803132E-02  1.293309423E-01  1.232882868E-01  1.081359721E+05  2.688007650E+02  3.431682731E+02  2.932635657E+02  1.954388002E+02  1.873553855E-01 
        64  3.310586596E-02  1.296649637E-01  1.262581306E-01  1.082368546E+05  2.690136502E+02  3.430806837E+02  2.931134932E+02  1.967739414E+02  1.923596171E-01 
        65  3.306639982E-02  1.299493947E-01  1.292495641E-01  1.081708342E+05  2.704134305E+02  3.429614160E+02  2.929098148E+02  1.997422326E+02  1.959843171E-01 
        66  3.322486525E-02  1.302097713E-01  1.322380794E-01  1.079466087E+05  2.723014975E+02  3.428438873E+02  2.927090538E+02  2.012707555E+02  1.918498575E-01 
        67  3.356462385E-02  1.304573038E-01  1.352130229E-01  1.076690975E+05  2.737897661E+02  3.428044897E+02  2.926417037E+02  2.024104455E+02  1.892814503E-01 
        68  3.400410102E-02  1.306751199E-01  1.381765647E-01  1.073704556E+05  2.751943340E+02  3.427572803E+02  2.925611522E+02  2.041570320E+02  1.892526688E-01 
        69  3.451963359E-02  1.308741206E-01  1.411278790E-01  1.070040365E+05  2.768824909E+02  3.426121917E+02  2.923134878E+02  2.063455958E+02  1.890899937E-01 
        70  3.508991352E-02  1.310576265E-01  1.440660380E-01  1.066345203E+05  2.784150875E+02  3.424523616E+02  2.920407887E+02  2.085522475E+02  1.899549889E-01 
        71  3.570211579E-02  1.312503676E-01  1.470000000E-01  1.062953223E+05  2.797459908E+02  3.423167725E+02  2.918075027E+02  2.107034988E+02  1.916100513E-01 
        72 -2.843361623E-02  1.708417341E-01 -4.258217492E-02  8.209681226E+04  1.838436961E+02  3.299941530E+02  2.711787891E+02  3.444641123E+02  1.007811371E+00 
        73 -2.838826984E-02  1.709653765E-01 -3.916427879E-02  8.217047595E+04  1.839799800E+02  3.300177007E+02  2.712174802E+02  3.440127711E+02  1.006589014E+00 
        74 -2.835908450E-02  1.711140563E-01 -3.574649433E-02  8.239242114E+04  1.836451992E+02  3.301765163E+02  2.714788013E+02  3.437512972E+02  1.007499264E+00 
        75 -2.838361088E-02  1.712589164E-01 -3.232950605E-02  8.287272876E+04  1.833591857E+02  3.304028778E+02  2.718511152E+02  3.433414955E+02  1.007680338E+00 
        76 -2.841360827E-02  1.714319125E-01 -2.891476756E-02  8.331665991E+04  1.821987925E+02  3.307320838E+02  2.723930273E+02  3.411513681E+02  1.007648667E+00 
        77 -2.833774301E-02  1.716334782E-01 -2.549995819E-02  8.374764865E+04  1.817206746E+02  3.309148381E+02  2.726942588E+02  3.402186736E+02  1.007812150E+00 
        78 -2.791452343E-02  1.719215161E-01 -2.212016887E-02  8.424814404E+04  1.808436985E+02  3.311789742E+02  2.731297188E+02  3.399030933E+02  1.010228783E+00 
        79 -2.700703325E-02  1.722886754E-01 -1.884820631E-02  8.429053662E+04  1.796561227E+02  3.312292871E+02  2.732126398E+02  3.404805956E+02  1.015318412E+00 
        80 -2.544395246E-02  1.727209334E-01 -1.584518523E-02  8.334832361E+04  1.820133727E+02  3.305925403E+02  2.721635239E+02  3.433873873E+02  1.012346960E+00 
        81 -2.351536464E-02  1.732363399E-01 -1.306823492E-02  8.129367909E+04  1.855406882E+02  3.294953456E+02  2.703605919E+02  3.487668616E+02  1.010145016E+00 
        82 -2.134527601E-02  1.737374909E-01 -1.047435973E-02  7.873714828E+04  1.912997711E+02  3.279940729E+02  2.679033535E+02  3.559909741E+02  1.004188657E+00 
        83 -1.897326710E-02  1.742189522E-01 -8.035177519E-03  7.584890793E+04  1.976588735E+02  3.263517091E+02  2.652265416E+02  3.639334141E+02  9.985490125E-01 
        84 -1.652827274E-02  1.746780172E-01 -5.688541800E-03  7.363109253E+04  2.055375814E+02  3.249164872E+02  2.628990467E+02  3.695698791E+02  9.828586802E-01 
        85 -1.397929867E-02  1.751251779E-01 -3.446989688E-03  7.262856641E+04  2.093156538E+02  3.242811360E+02  2.618714223E+02  3.731453118E+02  9.770673439E-01 
        86 -1.139011487E-02  1.755573757E-01 -1.256774906E-03  7.352653394E+04  2.099791744E+02  3.249630723E+02  2.629749899E+02  3.709453678E+02  9.703357276E-01 
        87 -8.734274343E-03  1.759085237E-01  8.667805443E-04  7.834148834E+04  2.045717161E+02  3.277501225E+02  2.675138702E+02  3.598045762E+02  9.670124957E-01 
        88 -6.073383534E-03  1.762548475E-01  2.984781313E-03  8.825723547E+04  1.911646062E+02  3.332963808E+02  2.766433902E+02  3.317047822E+02  9.641471747E-01 
        89 -3.359730182E-03  1.765819110E-01  5.053045394E-03  9.827524500E+04  1.764461734E+02  3.382286735E+02  2.848847064E+02  3.054417574E+02  9.797607102E-01 
        90 -6.741955509E-04  1.768270807E-01  7.130208361E-03  9.679263801E+04  1.608321076E+02  3.382460397E+02  2.849139737E+02  3.097505702E+02  1.038554663E+00 
        91  2.027043660E-03  1.770783858E-01  9.208570588E-03  7.875195580E+04  1.943693704E+02  3.278125973E+02  2.676101621E+02  3.571201368E+02  9.964192976E-01 
        92  4.731686997E-03  1.772422585E-01  1.127155269E-02  7.315436551E+04  2.107546229E+02  3.247536809E+02  2.626363452E+02  3.713079580E+02  9.683106509E-01 
        93  7.454465044E-03  1.773874983E-01  1.334309669E-02  7.371844418E+04  2.094064751E+02  3.250558211E+02  2.631258406E+02  3.739837711E+02  9.780529048E-01 
        94  1.015989937E-02  1.775222933E-01  1.545596277E-02  7.092640503E+04  2.186664653E+02  3.231263838E+02  2.600199738E+02  3.837028616E+02  9.676135216E-01 
        95  1.284858280E-02  1.775661421E-01  1.756817794E-02  6.739581702E+04  2.283232186E+02  3.208095946E+02  2.563034579E+02  3.919839153E+02  9.531930811E-01 
        96  1.551966693E-02  1.776138061E-01  1.970369132E-02  6.434417981E+04  2.367176809E+02  3.187536929E+02  2.530315089E+02  3.999485340E+02  9.428184303E-01 
        97  1.817410325E-02  1.776258069E-01  2.186017323E-02  6.174736853E+04  2.456067276E+02  3.168688445E+02  2.500452785E+02  4.082800202E+02  9.317556582E-01 
        98  2.080993586E-02  1.775631240E-01  2.403936301E-02  5.984554443E+04  2.539467835E+02  3.154393997E+02  2.477940612E+02  4.148070087E+02  9.190976862E-01 
        99  2.341570779E-02  1.774969016E-01  2.625394818E-02  5.918548499E+04  2.593205957E+02  3.150569019E+02  2.471938987E+02  4.165217285E+02  9.054081179E-01 
       100  2.600295182E-02  1.773818036E-01  2.848806157E-02  6.098722437E+04  2.602369165E+02  3.165075350E+02  2.494882650E+02  4.114780941E+02  8.906183504E-01 
       101  2.856627515E-02  1.771883875E-01  3.074502562E-02  6.667519824E+04  2.557894354E+02  3.204116793E+02  2.557328749E+02  3.959582272E+02  8.723995611E-01 
       102  3.110662233E-02  1.769811535E-01  3.302644514E-02  7.511867993E+04  2.475456514E+02  3.259688301E+02  2.646822214E+02  3.715799274E+02  8.495106325E-01 
       103  3.362247542E-02  1.767159818E-01  3.532849163E-02  8.180452148E+04  2.434405098E+02  3.301327457E+02  2.714301310E+02  3.525077400E+02  8.255328890E-01 
       104  3.610895472E-02  1.763647845E-01  3.765120331E-02  8.311096741E+04  2.477546408E+02  3.307331004E+02  2.724018817E+02  3.491968589E+02  8.048769766E-01 
       105  3.856497337E-02  1.759966372E-01  4.000321012E-02  8.062619516E+04  2.561551005E+02  3.292342670E+02  2.699366668E+02  3.568860290E+02  7.900424544E-01 
       106  4.103059304E-02  1.755360248E-01  4.234569910E-02  7.827490250E+04  2.635448782E+02  3.279507719E+02  2.678335458E+02  3.633377934E+02  7.769052202E-01 
       107  4.340106546E-02  1.750377176E-01  4.474435622E-02  7.857845142E+04  2.671289018E+02  3.283215824E+02  2.684416723E+02  3.611072060E+02  7.607392427E-01 
       108  4.575540032E-02  1.745445103E-01  4.717695363E-02  8.217256543E+04  2.657468719E+02  3.306484523E+02  2.722662773E+02  3.505219040E+02  7.458289694E-01 
       109  4.807037784E-02  1.739953488E-01  4.963532790E-02  8.848565796E+04  2.610563993E+02  3.341260042E+02  2.780273628E+02  3.333534575E+02  7.315772232E-01 
       110  5.034733117E-02  1.734133857E-01  5.212084081E-02  9.501277490E+04  2.574628124E+02  3.373149433E+02  2.833516235E+02  3.176693668E+02  7.172822654E-01 
       111  5.258765486E-02  1.728405975E-01  5.464144749E-02  9.941374414E+04  2.576240673E+02  3.392785091E+02  2.866550961E+02  3.081486530E+02  7.013614736E-01 
       112  5.479076840E-02  1.722430532E-01  5.718902978E-02  1.021786877E+05  2.585783358E+02  3.406190319E+02  2.889241180E+02  3.008344440E+02  6.867286712E-01 
       113  5.694737683E-02  1.716020731E-01  5.976586917E-02  1.050979867E+05  2.580082138E+02  3.420591271E+02  2.913726273E+02  2.920403616E+02  6.760064918E-01 
       114  5.911848447E-02  1.709340834E-01  6.233872565E-02  1.084661141E+05  2.556567853E+02  3.436970811E+02  2.941684474E+02  2.822877821E+02  6.707659397E-01 
       115  6.119351897E-02  1.703313828E-01  6.496775561E-02  1.112585110E+05  2.543446274E+02  3.449306707E+02  2.962837567E+02  2.751279140E+02  6.664935015E-01 
       116  6.319798910E-02  1.696485115E-01  6.765543605E-02  1.134000352E+05  2.531218495E+02  3.458367014E+02  2.978421407E+02  2.693513684E+02  6.638415372E-01 
       117  6.520189851E-02  1.689621155E-01  7.034628384E-02  1.154868647E+05  2.515442696E+02  3.467467813E+02  2.994115772E+02  2.643331070E+02  6.639279071E-01 
       118  6.717992039E-02  1.682884043E-01  7.305807409E-02  1.171606177E+05  2.508468990E+02  3.474172344E+02  3.005703669E+02  2.598961182E+02  6.617199276E-01 
       119  6.910755662E-02  1.675987334E-01  7.579818779E-02  1.186737686E+05  2.497206261E+02  3.480192521E+02  3.016126857E+02  2.560421293E+02  6.625908017E-01 
       120  7.101404689E-02  1.668389198E-01  7.852135391E-02  1.197816813E+05  2.469705689E+02  3.484310148E+02  3.023269382E+02  2.539547465E+02  6.715169987E-01 
