nodenumber     x-coordinate     y-coordinate     z-coordinate         pressure velocity-magnitude      sound-speed      temperature rel-velocity-magnitude relative-velocity-angle 
         1 -2.216901913E-02  1.039879580E-01 -4.300600202E-02  8.755221860E+04  1.539578500E+02  3.330436476E+02  2.762137231E+02  2.357175660E+02  8.591882914E-01 
         2 -2.197401757E-02  1.042260031E-01 -4.002397295E-02  8.747238092E+04  1.546838601E+02  3.329888085E+02  2.761227057E+02  2.365668820E+02  8.584044466E-01 
         3 -2.150271627E-02  1.045375264E-01 -3.708169353E-02  8.734555896E+04  1.549793195E+02  3.329521682E+02  2.760619948E+02  2.369059376E+02  8.582271067E-01 
         4 -2.072290556E-02  1.049359494E-01 -3.421635317E-02  8.723467126E+04  1.552848413E+02  3.329223661E+02  2.760126586E+02  2.374339054E+02  8.589138882E-01 
         5 -1.964621854E-02  1.053757771E-01 -3.145501365E-02  8.712360059E+04  1.564282970E+02  3.328261700E+02  2.758532152E+02  2.385514660E+02  8.569933213E-01 
         6 -1.833909717E-02  1.058829391E-01 -2.880182754E-02  8.695054932E+04  1.571792250E+02  3.327364616E+02  2.757044530E+02  2.393101640E+02  8.560403809E-01 
         7 -1.686396899E-02  1.064019756E-01 -2.624136390E-02  8.676718628E+04  1.580999637E+02  3.326302004E+02  2.755283794E+02  2.405687337E+02  8.559181001E-01 
         8 -1.524276490E-02  1.069101094E-01 -2.376908005E-02  8.660037537E+04  1.591158688E+02  3.325298181E+02  2.753620806E+02  2.416126175E+02  8.544519898E-01 
         9 -1.353040875E-02  1.074492491E-01 -2.136449246E-02  8.637684729E+04  1.601644437E+02  3.324243612E+02  2.751874802E+02  2.425627940E+02  8.526717145E-01 
        10 -1.175719847E-02  1.079385502E-01 -1.899452623E-02  8.617361700E+04  1.614905788E+02  3.323119545E+02  2.750013864E+02  2.439700119E+02  8.510440094E-01 
        11 -9.920451205E-03  1.084473482E-01 -1.667649769E-02  8.609153070E+04  1.625255181E+02  3.322722480E+02  2.749356968E+02  2.445494517E+02  8.478852327E-01 
        12 -8.053093039E-03  1.089314126E-01 -1.437870322E-02  8.623676563E+04  1.631897288E+02  3.323416048E+02  2.750504907E+02  2.444991518E+02  8.447204879E-01 
        13 -6.139911673E-03  1.093816015E-01 -1.211111235E-02  8.674308179E+04  1.623528051E+02  3.326389074E+02  2.755427790E+02  2.431952896E+02  8.454296701E-01 
        14 -4.213714023E-03  1.098625599E-01 -9.853315987E-03  8.758263574E+04  1.601565828E+02  3.330894032E+02  2.762898083E+02  2.401578636E+02  8.474699259E-01 
        15 -2.267252226E-03  1.102821410E-01 -7.616721013E-03  8.855877734E+04  1.566014261E+02  3.335640945E+02  2.770780268E+02  2.371407032E+02  8.574418947E-01 
        16 -3.058463972E-04  1.106716081E-01 -5.380345181E-03  8.931842114E+04  1.499091311E+02  3.339744854E+02  2.777602825E+02  2.341354146E+02  8.851017971E-01 
        17  1.649896870E-03  1.110991589E-01 -3.144821902E-03  8.762316687E+04  1.462818829E+02  3.330541520E+02  2.762333446E+02  2.424067342E+02  9.350701617E-01 
        18  3.605378217E-03  1.114680886E-01 -8.997268064E-04  7.560320654E+04  1.780952711E+02  3.261093159E+02  2.648333278E+02  2.888447285E+02  9.380474389E-01 
        19  5.548952344E-03  1.118349081E-01  1.356589372E-03  6.987415356E+04  2.086757717E+02  3.227171652E+02  2.593534086E+02  3.058707311E+02  8.420773451E-01 
        20  7.472030685E-03  1.121892539E-01  3.633809071E-03  7.291672281E+04  2.076518776E+02  3.251853421E+02  2.633378833E+02  2.916769623E+02  7.880738557E-01 
        21  9.366594022E-03  1.125505666E-01  5.932977735E-03  7.662899213E+04  2.059541652E+02  3.273225648E+02  2.668101461E+02  2.828517528E+02  7.622405570E-01 
        22  1.122147558E-02  1.129077905E-01  8.263617067E-03  7.899383969E+04  2.069729685E+02  3.286183126E+02  2.689245583E+02  2.736774841E+02  7.236136965E-01 
        23  1.303284284E-02  1.132507638E-01  1.062953057E-02  8.052258713E+04  2.093193506E+02  3.294621240E+02  2.703067669E+02  2.680195106E+02  6.919089802E-01 
        24  1.479928419E-02  1.136234762E-01  1.303021626E-02  8.170427635E+04  2.137345114E+02  3.300841713E+02  2.713284739E+02  2.656542780E+02  6.610154058E-01 
        25  1.649617427E-02  1.139938279E-01  1.547769530E-02  8.274823291E+04  2.191044552E+02  3.305808020E+02  2.721450541E+02  2.634458396E+02  6.259061871E-01 
        26  1.811807173E-02  1.143837002E-01  1.797032872E-02  8.345144568E+04  2.250238099E+02  3.308782301E+02  2.726346302E+02  2.620534973E+02  5.908795865E-01 
        27  1.968166241E-02  1.148013513E-01  2.049621310E-02  8.354300903E+04  2.317297153E+02  3.309142025E+02  2.726938870E+02  2.621946046E+02  5.570946853E-01 
        28  2.119101764E-02  1.152299366E-01  2.305322148E-02  8.306977935E+04  2.401104204E+02  3.306109963E+02  2.721944282E+02  2.642684921E+02  5.221715920E-01 
        29  2.266338778E-02  1.156643914E-01  2.563116057E-02  8.247808069E+04  2.493030440E+02  3.301676474E+02  2.714650059E+02  2.679027616E+02  4.883987473E-01 
        30  2.408077791E-02  1.161159634E-01  2.823658064E-02  8.191892761E+04  2.574666574E+02  3.298722901E+02  2.709794908E+02  2.708483155E+02  4.573560022E-01 
        31  2.544088325E-02  1.165921105E-01  3.086849856E-02  8.132128809E+04  2.651406307E+02  3.296263547E+02  2.705754879E+02  2.729815774E+02  4.263944700E-01 
        32  2.674433127E-02  1.170738851E-01  3.352942364E-02  8.072147046E+04  2.734576359E+02  3.292709961E+02  2.699925060E+02  2.757170715E+02  3.947169017E-01 
        33  2.797950643E-02  1.175445507E-01  3.622298897E-02  8.018442160E+04  2.823846719E+02  3.288300598E+02  2.692700158E+02  2.792635627E+02  3.630080997E-01 
        34  2.916313541E-02  1.180056499E-01  3.893937175E-02  7.986260083E+04  2.901746767E+02  3.286041647E+02  2.689003644E+02  2.819537656E+02  3.339595999E-01 
        35  3.031249539E-02  1.184785399E-01  4.167042727E-02  7.994486987E+04  2.954348940E+02  3.288433266E+02  2.692916372E+02  2.822467377E+02  3.088566530E-01 
        36  3.139929926E-02  1.189405785E-01  4.442941843E-02  8.021658325E+04  3.009320654E+02  3.290940464E+02  2.697020541E+02  2.823946046E+02  2.820171974E-01 
        37  3.242013936E-02  1.193808800E-01  4.721660669E-02  8.078772475E+04  3.064750569E+02  3.294094262E+02  2.702196339E+02  2.817808774E+02  2.517352203E-01 
        38  3.340677803E-02  1.198011670E-01  5.002067675E-02  8.210530859E+04  3.094006414E+02  3.302078502E+02  2.715317167E+02  2.785882438E+02  2.249770935E-01 
        39  3.430413654E-02  1.201853153E-01  5.285529857E-02  8.385340894E+04  3.109233255E+02  3.311851559E+02  2.731413622E+02  2.738837814E+02  1.995314183E-01 
        40  3.515433510E-02  1.205874318E-01  5.570324370E-02  8.597272559E+04  3.110334606E+02  3.322951546E+02  2.749757633E+02  2.679466991E+02  1.768757328E-01 
        41  3.592907297E-02  1.209644065E-01  5.857535950E-02  8.834438281E+04  3.092941937E+02  3.335784683E+02  2.771042809E+02  2.608404131E+02  1.598760504E-01 
        42  3.664355424E-02  1.213334730E-01  6.146049591E-02  9.079456360E+04  3.060071301E+02  3.348484311E+02  2.792178531E+02  2.529313197E+02  1.487310752E-01 
        43  3.727845098E-02  1.217084379E-01  6.437276718E-02  9.305578809E+04  3.021311140E+02  3.359084272E+02  2.809876289E+02  2.454898424E+02  1.434855396E-01 
        44  3.781448665E-02  1.220744111E-01  6.730672953E-02  9.483333130E+04  2.983777885E+02  3.367414551E+02  2.823821306E+02  2.395042868E+02  1.440132549E-01 
        45  3.826762164E-02  1.224563704E-01  7.025293559E-02  9.597504602E+04  2.957226050E+02  3.372662637E+02  2.832626517E+02  2.357890333E+02  1.477639197E-01 
        46  3.856443464E-02  1.228195695E-01  7.317567491E-02  9.652957422E+04  2.937060318E+02  3.376346588E+02  2.838821030E+02  2.338328323E+02  1.548527852E-01 
        47  3.882754171E-02  1.231963568E-01  7.616928387E-02  9.668783499E+04  2.919319521E+02  3.381760705E+02  2.847949016E+02  2.319609452E+02  1.613226382E-01 
        48  3.896508106E-02  1.235573809E-01  7.913505459E-02  9.667714844E+04  2.870771980E+02  3.393983307E+02  2.868733597E+02  2.242131424E+02  1.669192873E-01 
        49  3.903512947E-02  1.239238609E-01  8.213137167E-02  9.660352454E+04  2.758431327E+02  3.417791884E+02  2.909382520E+02  2.047078362E+02  1.784933386E-01 
        50  3.900153017E-02  1.243001337E-01  8.510504302E-02  9.647154022E+04  2.580139648E+02  3.454125535E+02  2.971677739E+02  1.700002210E+02  1.829236711E-01 
        51  3.889299026E-02  1.246700891E-01  8.806950082E-02  9.617890698E+04  2.398094392E+02  3.493346210E+02  3.039413221E+02  1.220786252E+02  1.742212268E-01 
        52  3.870303970E-02  1.250405990E-01  9.105247242E-02  9.604930981E+04  2.330203481E+02  3.518354750E+02  3.082781582E+02  8.037735271E+01  4.732753796E-02 
        53  3.847530202E-02  1.253810613E-01  9.402032493E-02  9.661981519E+04  2.332141747E+02  3.528296822E+02  3.100185393E+02  4.756099761E+01 -3.633953311E-01 
        54  3.809583015E-02  1.257752167E-01  9.695318516E-02  9.677953125E+04  2.326228981E+02  3.528688126E+02  3.100813904E+02  4.089731693E+01 -9.744068198E-01 
        55  3.767199372E-02  1.261489404E-01  9.992435767E-02  9.800591089E+04  2.475059390E+02  3.524056826E+02  3.092656198E+02  4.829051900E+01 -2.032875855E+00 
        56  3.723780727E-02  1.265196365E-01  1.028569506E-01  9.980963657E+04  2.548936169E+02  3.516884028E+02  3.080090766E+02  6.734148401E+01 -1.118419739E+00 
        57  3.672955052E-02  1.269046997E-01  1.057947981E-01  1.012233093E+05  2.451624753E+02  3.500627751E+02  3.051674409E+02  1.106986554E+02 -6.262809760E-02 
        58  3.615520807E-02  1.273091289E-01  1.087154776E-01  1.033061450E+05  2.374691091E+02  3.476434498E+02  3.009666204E+02  1.504569263E+02  2.545437720E-01 
        59  3.556812424E-02  1.277144368E-01  1.116309472E-01  1.057095748E+05  2.434470227E+02  3.449931438E+02  2.963949015E+02  1.780097880E+02  2.897259181E-01 
        60  3.495651588E-02  1.281329458E-01  1.145394580E-01  1.073876433E+05  2.504140224E+02  3.437714009E+02  2.942970452E+02  1.869945354E+02  2.701578708E-01 
        61  3.433795015E-02  1.285471243E-01  1.174457346E-01  1.080732501E+05  2.572283604E+02  3.435151944E+02  2.938571873E+02  1.902501993E+02  2.384600332E-01 
        62  3.376061330E-02  1.289460490E-01  1.203607660E-01  1.081168297E+05  2.646439278E+02  3.434604452E+02  2.937636309E+02  1.924926412E+02  2.008259951E-01 
        63  3.331803132E-02  1.293309423E-01  1.232882868E-01  1.080329111E+05  2.688992450E+02  3.434310511E+02  2.937127728E+02  1.959922218E+02  1.885688039E-01 
        64  3.310586596E-02  1.296649637E-01  1.262581306E-01  1.080181803E+05  2.709888797E+02  3.432019103E+02  2.933211703E+02  1.976703619E+02  1.836000048E-01 
        65  3.306639982E-02  1.299493947E-01  1.292495641E-01  1.079905033E+05  2.714969403E+02  3.429788241E+02  2.929396357E+02  1.996294076E+02  1.890900023E-01 
        66  3.322486525E-02  1.302097713E-01  1.322380794E-01  1.078511885E+05  2.720916204E+02  3.428274484E+02  2.926810249E+02  2.015173019E+02  1.940319016E-01 
        67  3.356462385E-02  1.304573038E-01  1.352130229E-01  1.075967596E+05  2.730869731E+02  3.427233024E+02  2.925033330E+02  2.023326281E+02  1.931779538E-01 
        68  3.400410102E-02  1.306751199E-01  1.381765647E-01  1.072696606E+05  2.743385499E+02  3.426529679E+02  2.923832357E+02  2.029326456E+02  1.900054906E-01 
        69  3.451963359E-02  1.308741206E-01  1.411278790E-01  1.069610359E+05  2.757798603E+02  3.425808454E+02  2.922600729E+02  2.043864214E+02  1.887839760E-01 
        70  3.508991352E-02  1.310576265E-01  1.440660380E-01  1.066393395E+05  2.773945563E+02  3.424900351E+02  2.921050699E+02  2.067510915E+02  1.897371409E-01 
        71  3.570211579E-02  1.312503676E-01  1.470000000E-01  1.062987188E+05  2.791217957E+02  3.423396606E+02  2.918457565E+02  2.095165386E+02  1.911720242E-01 
        72 -2.843361623E-02  1.708417341E-01 -4.258217492E-02  8.210585278E+04  1.836518922E+02  3.300232506E+02  2.712264967E+02  3.443777580E+02  1.008290123E+00 
        73 -2.838826984E-02  1.709653765E-01 -3.916427879E-02  8.215189532E+04  1.837554970E+02  3.300512998E+02  2.712726634E+02  3.444211435E+02  1.008055114E+00 
        74 -2.835908450E-02  1.711140563E-01 -3.574649433E-02  8.237573883E+04  1.832462136E+02  3.302274179E+02  2.715624194E+02  3.425731122E+02  1.006611802E+00 
        75 -2.838361088E-02  1.712589164E-01 -3.232950605E-02  8.277899878E+04  1.840053906E+02  3.303168631E+02  2.717098312E+02  3.437065105E+02  1.006271672E+00 
        76 -2.841360827E-02  1.714319125E-01 -2.891476756E-02  8.325409644E+04  1.823311868E+02  3.307085037E+02  2.723542714E+02  3.413468404E+02  1.007732537E+00 
        77 -2.833774301E-02  1.716334782E-01 -2.549995819E-02  8.381529791E+04  1.814776942E+02  3.310042820E+02  2.728416845E+02  3.397445431E+02  1.007931313E+00 
        78 -2.791452343E-02  1.719215161E-01 -2.212016887E-02  8.417782324E+04  1.810780201E+02  3.311160851E+02  2.730262136E+02  3.395737896E+02  1.009074412E+00 
        79 -2.700703325E-02  1.722886754E-01 -1.884820631E-02  8.415879028E+04  1.807103825E+02  3.310745993E+02  2.729577599E+02  3.405356064E+02  1.012046278E+00 
        80 -2.544395246E-02  1.727209334E-01 -1.584518523E-02  8.326707532E+04  1.813370233E+02  3.306395290E+02  2.722407579E+02  3.442069144E+02  1.016414149E+00 
        81 -2.351536464E-02  1.732363399E-01 -1.306823492E-02  8.133823354E+04  1.854559975E+02  3.295139796E+02  2.703911867E+02  3.483603039E+02  1.009810254E+00 
        82 -2.134527601E-02  1.737374909E-01 -1.047435973E-02  7.875553798E+04  1.896949633E+02  3.282034953E+02  2.682448252E+02  3.550214683E+02  1.007627268E+00 
        83 -1.897326710E-02  1.742189522E-01 -8.035177519E-03  7.582778192E+04  1.995889725E+02  3.261273069E+02  2.648638225E+02  3.635860498E+02  9.912144919E-01 
        84 -1.652827274E-02  1.746780172E-01 -5.688541800E-03  7.361465039E+04  2.042081587E+02  3.249945483E+02  2.630274036E+02  3.690935082E+02  9.865192343E-01 
        85 -1.397929867E-02  1.751251779E-01 -3.446989688E-03  7.283369055E+04  2.095180135E+02  3.243312378E+02  2.619537711E+02  3.734365873E+02  9.773404673E-01 
        86 -1.139011487E-02  1.755573757E-01 -1.256774906E-03  7.356193433E+04  2.097889256E+02  3.249220243E+02  2.629088035E+02  3.710024343E+02  9.712628741E-01 
        87 -8.734274343E-03  1.759085237E-01  8.667805443E-04  7.821427246E+04  2.044636421E+02  3.277667563E+02  2.675393353E+02  3.591351767E+02  9.661713759E-01 
        88 -6.073383534E-03  1.762548475E-01  2.984781313E-03  8.808487738E+04  1.910634997E+02  3.332733178E+02  2.766070334E+02  3.309854598E+02  9.640496904E-01 
        89 -3.359730182E-03  1.765819110E-01  5.053045394E-03  9.770735443E+04  1.783651998E+02  3.379484909E+02  2.844117372E+02  3.051548808E+02  9.724379247E-01 
        90 -6.741955509E-04  1.768270807E-01  7.130208361E-03  9.691669120E+04  1.663055033E+02  3.378440624E+02  2.842377515E+02  3.118335027E+02  1.024008894E+00 
        91  2.027043660E-03  1.770783858E-01  9.208570588E-03  7.914997485E+04  1.939116950E+02  3.280907720E+02  2.680655163E+02  3.587452652E+02  1.001184559E+00 
        92  4.731686997E-03  1.772422585E-01  1.127155269E-02  7.431785976E+04  2.116051688E+02  3.250515665E+02  2.631197839E+02  3.741011422E+02  9.710110673E-01 
        93  7.454465044E-03  1.773874983E-01  1.334309669E-02  7.415490167E+04  2.090227782E+02  3.250527040E+02  2.631211042E+02  3.725107819E+02  9.765724668E-01 
        94  1.015989937E-02  1.775222933E-01  1.545596277E-02  7.109779377E+04  2.163049711E+02  3.232836362E+02  2.602702413E+02  3.792661509E+02  9.667800963E-01 
        95  1.284858280E-02  1.775661421E-01  1.756817794E-02  6.745619965E+04  2.263740065E+02  3.210396461E+02  2.566683234E+02  3.903334332E+02  9.564143009E-01 
        96  1.551966693E-02  1.776138061E-01  1.970369132E-02  6.428450867E+04  2.369302688E+02  3.187127223E+02  2.529677324E+02  4.015498490E+02  9.457511194E-01 
        97  1.817410325E-02  1.776258069E-01  2.186017323E-02  6.163543408E+04  2.455617330E+02  3.168901606E+02  2.500796504E+02  4.088686509E+02  9.335129177E-01 
        98  2.080993586E-02  1.775631240E-01  2.403936301E-02  5.977403406E+04  2.522378535E+02  3.157272844E+02  2.482464147E+02  4.120827551E+02  9.187853280E-01 
        99  2.341570779E-02  1.774969016E-01  2.625394818E-02  5.929200854E+04  2.575248213E+02  3.153502369E+02  2.476543779E+02  4.140632696E+02  9.053350613E-01 
       100  2.600295182E-02  1.773818036E-01  2.848806157E-02  6.106484497E+04  2.593756104E+02  3.166196890E+02  2.496640406E+02  4.105167532E+02  8.909915835E-01 
       101  2.856627515E-02  1.771883875E-01  3.074502562E-02  6.650196680E+04  2.554269037E+02  3.203899403E+02  2.556941051E+02  3.955257244E+02  8.724654354E-01 
       102  3.110662233E-02  1.769811535E-01  3.302644514E-02  7.484683911E+04  2.466523209E+02  3.259299440E+02  2.646107483E+02  3.712254181E+02  8.514734041E-01 
       103  3.362247542E-02  1.767159818E-01  3.532849163E-02  8.163686023E+04  2.425247030E+02  3.299786921E+02  2.711738296E+02  3.524872284E+02  8.283359855E-01 
       104  3.610895472E-02  1.763647845E-01  3.765120331E-02  8.311135645E+04  2.470895779E+02  3.307088246E+02  2.723624120E+02  3.500253458E+02  8.084856570E-01 
       105  3.856497337E-02  1.759966372E-01  4.000321012E-02  8.059759592E+04  2.560683675E+02  3.293628495E+02  2.701492709E+02  3.575505352E+02  7.918442870E-01 
       106  4.103059304E-02  1.755360248E-01  4.234569910E-02  7.824706148E+04  2.640466530E+02  3.280241799E+02  2.679529933E+02  3.632429008E+02  7.751799664E-01 
       107  4.340106546E-02  1.750377176E-01  4.474435622E-02  7.855799185E+04  2.683424438E+02  3.281385262E+02  2.681407509E+02  3.634586353E+02  7.610172548E-01 
       108  4.575540032E-02  1.745445103E-01  4.717695363E-02  8.199910449E+04  2.667025642E+02  3.302799640E+02  2.716582890E+02  3.526378303E+02  7.462876411E-01 
       109  4.807037784E-02  1.739953488E-01  4.963532790E-02  8.828102466E+04  2.620743246E+02  3.337060795E+02  2.773296490E+02  3.359384785E+02  7.321439646E-01 
       110  5.034733117E-02  1.734133857E-01  5.212084081E-02  9.503306104E+04  2.573574371E+02  3.372868824E+02  2.833077984E+02  3.173801231E+02  7.174586877E-01 
       111  5.258765486E-02  1.728405975E-01  5.464144749E-02  9.949512891E+04  2.567950764E+02  3.395867405E+02  2.871762981E+02  3.042803802E+02  6.985774413E-01 
       112  5.479076840E-02  1.722430532E-01  5.718902978E-02  1.022982856E+05  2.579962292E+02  3.408918505E+02  2.893867264E+02  2.986326218E+02  6.855798867E-01 
       113  5.694737683E-02  1.716020731E-01  5.976586917E-02  1.052491506E+05  2.575805573E+02  3.421914604E+02  2.915974102E+02  2.927950478E+02  6.785058416E-01 
       114  5.911848447E-02  1.709340834E-01  6.233872565E-02  1.085889520E+05  2.568571013E+02  3.435526207E+02  2.939213872E+02  2.849826944E+02  6.698782162E-01 
       115  6.119351897E-02  1.703313828E-01  6.496775561E-02  1.114178696E+05  2.558508058E+02  3.447910557E+02  2.960449648E+02  2.760933437E+02  6.621159073E-01 
       116  6.319798910E-02  1.696485115E-01  6.765543605E-02  1.136191870E+05  2.538888955E+02  3.459359965E+02  2.980134974E+02  2.684999962E+02  6.598139182E-01 
       117  6.520189851E-02  1.689621155E-01  7.034628384E-02  1.157127690E+05  2.524419107E+02  3.468628283E+02  2.996118803E+02  2.632462063E+02  6.592159532E-01 
       118  6.717992039E-02  1.682884043E-01  7.305807409E-02  1.174068931E+05  2.511746550E+02  3.475164948E+02  3.007421083E+02  2.595969658E+02  6.602246054E-01 
       119  6.910755662E-02  1.675987334E-01  7.579818779E-02  1.188198208E+05  2.487116871E+02  3.481474435E+02  3.018350532E+02  2.570197043E+02  6.675732052E-01 
       120  7.101404689E-02  1.668389198E-01  7.852135391E-02  1.197274985E+05  2.470556982E+02  3.484886346E+02  3.024273100E+02  2.546610174E+02  6.717526503E-01 
