nodenumber     x-coordinate     y-coordinate     z-coordinate         pressure velocity-magnitude      sound-speed      temperature rel-velocity-magnitude relative-velocity-angle 
         1 -2.216901913E-02  1.039879580E-01 -4.300600202E-02  8.754725937E+04  1.539525739E+02  3.330491790E+02  2.762228402E+02  2.357982615E+02  8.594417212E-01 
         2 -2.197401757E-02  1.042260031E-01 -4.002397295E-02  8.746490680E+04  1.544330004E+02  3.330045844E+02  2.761488556E+02  2.363436421E+02  8.589258310E-01 
         3 -2.150271627E-02  1.045375264E-01 -3.708169353E-02  8.736248517E+04  1.550532492E+02  3.329486506E+02  2.760561211E+02  2.370142426E+02  8.581858380E-01 
         4 -2.072290556E-02  1.049359494E-01 -3.421635317E-02  8.724856763E+04  1.557386067E+02  3.328888631E+02  2.759570017E+02  2.377541206E+02  8.574056346E-01 
         5 -1.964621854E-02  1.053757771E-01 -3.145501365E-02  8.712508325E+04  1.564416790E+02  3.328257990E+02  2.758524518E+02  2.385087156E+02  8.566261102E-01 
         6 -1.833909717E-02  1.058829391E-01 -2.880182754E-02  8.697620459E+04  1.572189221E+02  3.327485561E+02  2.757244039E+02  2.394260592E+02  8.560619801E-01 
         7 -1.686396899E-02  1.064019756E-01 -2.624136390E-02  8.679808594E+04  1.580758095E+02  3.326539392E+02  2.755676184E+02  2.404443784E+02  8.554592133E-01 
         8 -1.524276490E-02  1.069101094E-01 -2.376908005E-02  8.659000610E+04  1.590634193E+02  3.325416145E+02  2.753815818E+02  2.415764499E+02  8.545874041E-01 
         9 -1.353040875E-02  1.074492491E-01 -2.136449246E-02  8.637092322E+04  1.602192655E+02  3.324231162E+02  2.751853385E+02  2.428297479E+02  8.532780111E-01 
        10 -1.175719847E-02  1.079385502E-01 -1.899452623E-02  8.619645758E+04  1.614289422E+02  3.323293543E+02  2.750300989E+02  2.438917477E+02  8.510447126E-01 
        11 -9.920451205E-03  1.084473482E-01 -1.667649769E-02  8.613705884E+04  1.625292042E+02  3.322970680E+02  2.749766850E+02  2.446014911E+02  8.481564501E-01 
        12 -8.053093039E-03  1.089314126E-01 -1.437870322E-02  8.627016956E+04  1.631090190E+02  3.323681445E+02  2.750943617E+02  2.444301869E+02  8.449583482E-01 
        13 -6.139911673E-03  1.093816015E-01 -1.211111235E-02  8.667745996E+04  1.626618629E+02  3.325877552E+02  2.754579849E+02  2.432182007E+02  8.436898459E-01 
        14 -4.213714023E-03  1.098625599E-01 -9.853315987E-03  8.742341650E+04  1.606982422E+02  3.329865456E+02  2.761190243E+02  2.407613935E+02  8.465080708E-01 
        15 -2.267252226E-03  1.102821410E-01 -7.616721013E-03  8.854524951E+04  1.564380684E+02  3.335889626E+02  2.771190805E+02  2.372054453E+02  8.584531508E-01 
        16 -3.058463972E-04  1.106716081E-01 -5.380345181E-03  8.952422583E+04  1.494299264E+02  3.340753288E+02  2.779279318E+02  2.340422897E+02  8.871725313E-01 
        17  1.649896870E-03  1.110991589E-01 -3.144821902E-03  8.731095654E+04  1.472835940E+02  3.328389268E+02  2.758757961E+02  2.437332392E+02  9.324258855E-01 
        18  3.605378217E-03  1.114680886E-01 -8.997268064E-04  7.608264844E+04  1.739797568E+02  3.264863014E+02  2.654447088E+02  2.844412241E+02  9.418954924E-01 
        19  5.548952344E-03  1.118349081E-01  1.356589372E-03  7.008809296E+04  2.077324221E+02  3.228443933E+02  2.595571492E+02  3.061716375E+02  8.477402069E-01 
        20  7.472030685E-03  1.121892539E-01  3.633809071E-03  7.262272169E+04  2.119317449E+02  3.245211358E+02  2.622626297E+02  2.981820594E+02  7.916437497E-01 
        21  9.366594022E-03  1.125505666E-01  5.932977735E-03  7.624792542E+04  2.087568885E+02  3.267160442E+02  2.658211668E+02  2.854023173E+02  7.579732467E-01 
        22  1.122147558E-02  1.129077905E-01  8.263617067E-03  7.868557758E+04  2.086919961E+02  3.280880617E+02  2.680569551E+02  2.769429128E+02  7.266445162E-01 
        23  1.303284284E-02  1.132507638E-01  1.062953057E-02  8.027826965E+04  2.112975100E+02  3.289365265E+02  2.694442680E+02  2.717549634E+02  6.945232198E-01 
        24  1.479928419E-02  1.136234762E-01  1.303021626E-02  8.146557010E+04  2.158126315E+02  3.295983987E+02  2.705296941E+02  2.682055848E+02  6.587532810E-01 
        25  1.649617427E-02  1.139938279E-01  1.547769530E-02  8.255236450E+04  2.207564766E+02  3.302103410E+02  2.715351782E+02  2.650810134E+02  6.224441072E-01 
        26  1.811807173E-02  1.143837002E-01  1.797032872E-02  8.336660974E+04  2.261113253E+02  3.306689878E+02  2.722894368E+02  2.629665222E+02  5.878410721E-01 
        27  1.968166241E-02  1.148013513E-01  2.049621310E-02  8.356289081E+04  2.329444008E+02  3.307957501E+02  2.724979239E+02  2.631127021E+02  5.538017754E-01 
        28  2.119101764E-02  1.152299366E-01  2.305322148E-02  8.306355400E+04  2.414330953E+02  3.305974504E+02  2.721713357E+02  2.654901300E+02  5.190948625E-01 
        29  2.266338778E-02  1.156643914E-01  2.563116057E-02  8.242025952E+04  2.502716956E+02  3.302626491E+02  2.716204734E+02  2.686175965E+02  4.853895616E-01 
        30  2.408077791E-02  1.161159634E-01  2.823658064E-02  8.186131940E+04  2.584735851E+02  3.299929652E+02  2.711769819E+02  2.714660542E+02  4.542353256E-01 
        31  2.544088325E-02  1.165921105E-01  3.086849856E-02  8.131108313E+04  2.665781558E+02  3.296874518E+02  2.706752329E+02  2.743772755E+02  4.241231461E-01 
        32  2.674433127E-02  1.170738851E-01  3.352942364E-02  8.074904248E+04  2.745883367E+02  3.293804708E+02  2.701714931E+02  2.773375823E+02  3.948809532E-01 
        33  2.797950643E-02  1.175445507E-01  3.622298897E-02  8.021656741E+04  2.823931122E+02  3.291369959E+02  2.697723225E+02  2.800824630E+02  3.659623035E-01 
        34  2.916313541E-02  1.180056499E-01  3.893937175E-02  7.991543097E+04  2.895790632E+02  3.290174967E+02  2.695768723E+02  2.820195618E+02  3.372194857E-01 
        35  3.031249539E-02  1.184785399E-01  4.167042727E-02  8.007809024E+04  2.953700813E+02  3.290596108E+02  2.696462585E+02  2.825007250E+02  3.102715185E-01 
        36  3.139929926E-02  1.189405785E-01  4.442941843E-02  8.040032162E+04  3.006548754E+02  3.291981670E+02  2.698732690E+02  2.823747270E+02  2.835553759E-01 
        37  3.242013936E-02  1.193808800E-01  4.721660669E-02  8.096340213E+04  3.056794051E+02  3.293552156E+02  2.701306099E+02  2.814288076E+02  2.547186127E-01 
        38  3.340677803E-02  1.198011670E-01  5.002067675E-02  8.218507312E+04  3.085622872E+02  3.299453799E+02  2.710993754E+02  2.781781307E+02  2.279543510E-01 
        39  3.430413654E-02  1.201853153E-01  5.285529857E-02  8.373101904E+04  3.102550268E+02  3.308727331E+02  2.726259508E+02  2.735783796E+02  2.020757860E-01 
        40  3.515433510E-02  1.205874318E-01  5.570324370E-02  8.559742432E+04  3.107615681E+02  3.319369907E+02  2.743828201E+02  2.679506454E+02  1.785013117E-01 
        41  3.592907297E-02  1.209644065E-01  5.857535950E-02  8.770428198E+04  3.098711810E+02  3.330855637E+02  2.762854414E+02  2.613460283E+02  1.587755075E-01 
        42  3.664355424E-02  1.213334730E-01  6.146049591E-02  8.994050134E+04  3.075520787E+02  3.342598109E+02  2.782369027E+02  2.541914744E+02  1.450543841E-01 
        43  3.727845098E-02  1.217084379E-01  6.437276718E-02  9.209760083E+04  3.043700495E+02  3.354052858E+02  2.801465034E+02  2.473177433E+02  1.377864867E-01 
        44  3.781448665E-02  1.220744111E-01  6.730672953E-02  9.391783521E+04  3.010857096E+02  3.363703890E+02  2.817606516E+02  2.416310339E+02  1.364871981E-01 
        45  3.826762164E-02  1.224563704E-01  7.025293559E-02  9.521038800E+04  2.983052163E+02  3.370785999E+02  2.829480991E+02  2.376374344E+02  1.395649397E-01 
        46  3.856443464E-02  1.228195695E-01  7.317567491E-02  9.598063672E+04  2.960816727E+02  3.376045227E+02  2.838315506E+02  2.349803619E+02  1.447683871E-01 
        47  3.882754171E-02  1.231963568E-01  7.616928387E-02  9.636961795E+04  2.943827716E+02  3.382304769E+02  2.848861771E+02  2.333345516E+02  1.514767455E-01 
        48  3.896508106E-02  1.235573809E-01  7.913505459E-02  9.648988867E+04  2.909303055E+02  3.391732025E+02  2.864884186E+02  2.281893234E+02  1.569604464E-01 
        49  3.903512947E-02  1.239238609E-01  8.213137167E-02  9.646510022E+04  2.827032876E+02  3.409441922E+02  2.895106070E+02  2.142716696E+02  1.637954267E-01 
        50  3.900153017E-02  1.243001337E-01  8.510504302E-02  9.633995905E+04  2.689009725E+02  3.438282074E+02  2.944425493E+02  1.889458899E+02  1.648576611E-01 
        51  3.889299026E-02  1.246700891E-01  8.806950082E-02  9.630838098E+04  2.528441687E+02  3.473368089E+02  3.004870915E+02  1.490326259E+02  1.452556434E-01 
        52  3.870303970E-02  1.250405990E-01  9.105247242E-02  9.633601196E+04  2.435528278E+02  3.501610179E+02  3.053671126E+02  1.116712506E+02  6.677086750E-02 
        53  3.847530202E-02  1.253810613E-01  9.402032493E-02  9.685783105E+04  2.415802212E+02  3.519152386E+02  3.084277006E+02  7.862253334E+01 -2.080907851E-01 
        54  3.809583015E-02  1.257752167E-01  9.695318516E-02  9.892163379E+04  2.401723213E+02  3.531759338E+02  3.106284904E+02  5.235819435E+01 -7.164261527E-01 
        55  3.767199372E-02  1.261489404E-01  9.992435767E-02  1.015569141E+05  2.396225452E+02  3.537425127E+02  3.116172075E+02  4.624086773E+01 -6.736963578E-01 
        56  3.723780727E-02  1.265196365E-01  1.028569506E-01  1.041230892E+05  2.375542833E+02  3.535545460E+02  3.112862014E+02  5.983288558E+01 -2.400853097E-01 
        57  3.672955052E-02  1.269046997E-01  1.057947981E-01  1.058226790E+05  2.379218268E+02  3.520925326E+02  3.087233772E+02  9.129766059E+01  1.129020005E-02 
        58  3.615520807E-02  1.273091289E-01  1.087154776E-01  1.068370605E+05  2.436315484E+02  3.494516201E+02  3.041159658E+02  1.313097601E+02  1.310084485E-01 
        59  3.556812424E-02  1.277144368E-01  1.116309472E-01  1.074745752E+05  2.539885201E+02  3.465169017E+02  2.990261681E+02  1.670999173E+02  1.805477247E-01 
        60  3.495651588E-02  1.281329458E-01  1.145394580E-01  1.078028547E+05  2.632718363E+02  3.443536959E+02  2.952970891E+02  1.886373339E+02  1.935077230E-01 
        61  3.433795015E-02  1.285471243E-01  1.174457346E-01  1.077992670E+05  2.682221618E+02  3.432547050E+02  2.934113407E+02  1.973233972E+02  1.937776348E-01 
        62  3.376061330E-02  1.289460490E-01  1.203607660E-01  1.077511683E+05  2.703339138E+02  3.429214797E+02  2.928413279E+02  1.998315227E+02  1.910919098E-01 
        63  3.331803132E-02  1.293309423E-01  1.232882868E-01  1.077873765E+05  2.716964476E+02  3.429207959E+02  2.928400992E+02  2.007238708E+02  1.877380225E-01 
        64  3.310586596E-02  1.296649637E-01  1.262581306E-01  1.077977277E+05  2.728029251E+02  3.429787219E+02  2.929390175E+02  2.012579403E+02  1.847601457E-01 
        65  3.306639982E-02  1.299493947E-01  1.292495641E-01  1.077385367E+05  2.736852087E+02  3.430114366E+02  2.929949495E+02  2.017154799E+02  1.828799034E-01 
        66  3.322486525E-02  1.302097713E-01  1.322380794E-01  1.076395099E+05  2.746371703E+02  3.429854019E+02  2.929503878E+02  2.025337872E+02  1.820457354E-01 
        67  3.356462385E-02  1.304573038E-01  1.352130229E-01  1.075148542E+05  2.756154137E+02  3.429340490E+02  2.928627111E+02  2.036361707E+02  1.824057425E-01 
        68  3.400410102E-02  1.306751199E-01  1.381765647E-01  1.073341057E+05  2.765810380E+02  3.428633866E+02  2.927420588E+02  2.049051814E+02  1.833363045E-01 
        69  3.451963359E-02  1.308741206E-01  1.411278790E-01  1.070899022E+05  2.776648898E+02  3.427608032E+02  2.925668895E+02  2.064290740E+02  1.845122112E-01 
        70  3.508991352E-02  1.310576265E-01  1.440660380E-01  1.067869141E+05  2.788201096E+02  3.426309929E+02  2.923453405E+02  2.080580921E+02  1.856618312E-01 
        71  3.570211579E-02  1.312503676E-01  1.470000000E-01  1.063209121E+05  2.802505150E+02  3.424283676E+02  2.920005531E+02  2.102227612E+02  1.868155953E-01 
        72 -2.843361623E-02  1.708417341E-01 -4.258217492E-02  8.203053711E+04  1.837627187E+02  3.299716597E+02  2.711415586E+02  3.443013248E+02  1.007662468E+00 
        73 -2.838826984E-02  1.709653765E-01 -3.916427879E-02  8.199356805E+04  1.842479820E+02  3.299487674E+02  2.711040161E+02  3.446532707E+02  1.006643541E+00 
        74 -2.835908450E-02  1.711140563E-01 -3.574649433E-02  8.231226917E+04  1.838543990E+02  3.301502783E+02  2.714352996E+02  3.436966953E+02  1.006268007E+00 
        75 -2.838361088E-02  1.712589164E-01 -3.232950605E-02  8.300620483E+04  1.829236131E+02  3.305357981E+02  2.720697479E+02  3.423584290E+02  1.007073980E+00 
        76 -2.841360827E-02  1.714319125E-01 -2.891476756E-02  8.384911304E+04  1.812300787E+02  3.310336881E+02  2.728898206E+02  3.398656464E+02  1.008496407E+00 
        77 -2.833774301E-02  1.716334782E-01 -2.549995819E-02  8.444836569E+04  1.801268941E+02  3.313507650E+02  2.734127723E+02  3.388881191E+02  1.010603959E+00 
        78 -2.791452343E-02  1.719215161E-01 -2.212016887E-02  8.461409912E+04  1.794845104E+02  3.314447308E+02  2.735678892E+02  3.384002209E+02  1.012028448E+00 
        79 -2.700703325E-02  1.722886754E-01 -1.884820631E-02  8.428105371E+04  1.796093869E+02  3.312491827E+02  2.732452927E+02  3.397832918E+02  1.014021322E+00 
        80 -2.544395246E-02  1.727209334E-01 -1.584518523E-02  8.311316467E+04  1.814647024E+02  3.305629015E+02  2.721144788E+02  3.433680933E+02  1.013986064E+00 
        81 -2.351536464E-02  1.732363399E-01 -1.306823492E-02  8.110210341E+04  1.854171390E+02  3.294061584E+02  2.702136322E+02  3.490989808E+02  1.010880315E+00 
        82 -2.134527601E-02  1.737374909E-01 -1.047435973E-02  7.835839140E+04  1.918049932E+02  3.278093431E+02  2.676006653E+02  3.569697549E+02  1.003947695E+00 
        83 -1.897326710E-02  1.742189522E-01 -8.035177519E-03  7.539994974E+04  1.995421869E+02  3.260450656E+02  2.647279757E+02  3.655950589E+02  9.946113001E-01 
        84 -1.652827274E-02  1.746780172E-01 -5.688541800E-03  7.312958032E+04  2.066061099E+02  3.246301994E+02  2.624349325E+02  3.724864860E+02  9.846553849E-01 
        85 -1.397929867E-02  1.751251779E-01 -3.446989688E-03  7.248956311E+04  2.098598309E+02  3.242156744E+02  2.617649493E+02  3.743975844E+02  9.775548130E-01 
        86 -1.139011487E-02  1.755573757E-01 -1.256774906E-03  7.418476648E+04  2.084834442E+02  3.252983985E+02  2.635179191E+02  3.698783579E+02  9.728680551E-01 
        87 -8.734274343E-03  1.759085237E-01  8.667805443E-04  7.946393567E+04  2.021635575E+02  3.285422058E+02  2.688054335E+02  3.550382299E+02  9.656800488E-01 
        88 -6.073383534E-03  1.762548475E-01  2.984781313E-03  8.888819238E+04  1.912296792E+02  3.336734450E+02  2.772670801E+02  3.302053738E+02  9.615923357E-01 
        89 -3.359730182E-03  1.765819110E-01  5.053045394E-03  9.849100256E+04  1.753524681E+02  3.384769289E+02  2.853026712E+02  3.036669426E+02  9.810602516E-01 
        90 -6.741955509E-04  1.768270807E-01  7.130208361E-03  9.836228512E+04  1.641614952E+02  3.385314597E+02  2.853938342E+02  3.057655844E+02  1.022739659E+00 
        91  2.027043660E-03  1.770783858E-01  9.208570588E-03  7.963321576E+04  1.908157637E+02  3.283781787E+02  2.685350092E+02  3.561357760E+02  1.006290102E+00 
        92  4.731686997E-03  1.772422585E-01  1.127155269E-02  7.218588977E+04  2.145025456E+02  3.239949728E+02  2.614104149E+02  3.765986513E+02  9.659834660E-01 
        93  7.454465044E-03  1.773874983E-01  1.334309669E-02  7.279816086E+04  2.110299940E+02  3.242295570E+02  2.617882010E+02  3.761910895E+02  9.766811519E-01 
        94  1.015989937E-02  1.775222933E-01  1.545596277E-02  7.047320921E+04  2.175953214E+02  3.229090578E+02  2.596640769E+02  3.829720334E+02  9.688671401E-01 
        95  1.284858280E-02  1.775661421E-01  1.756817794E-02  6.709437982E+04  2.279369634E+02  3.208331820E+02  2.563374723E+02  3.920692627E+02  9.537554071E-01 
        96  1.551966693E-02  1.776138061E-01  1.970369132E-02  6.410260913E+04  2.370172060E+02  3.187808349E+02  2.530691309E+02  4.006497726E+02  9.424308026E-01 
        97  1.817410325E-02  1.776258069E-01  2.186017323E-02  6.165662866E+04  2.454853630E+02  3.169532375E+02  2.501745892E+02  4.081321063E+02  9.311218364E-01 
        98  2.080993586E-02  1.775631240E-01  2.403936301E-02  6.004224915E+04  2.524822183E+02  3.157671742E+02  2.483023663E+02  4.128946486E+02  9.187779836E-01 
        99  2.341570779E-02  1.774969016E-01  2.625394818E-02  5.978189587E+04  2.571485763E+02  3.156125202E+02  2.480596166E+02  4.141999693E+02  9.061565492E-01 
       100  2.600295182E-02  1.773818036E-01  2.848806157E-02  6.185239868E+04  2.579219589E+02  3.171400471E+02  2.504850683E+02  4.087942972E+02  8.913651668E-01 
       101  2.856627515E-02  1.771883875E-01  3.074502562E-02  6.754958691E+04  2.524448471E+02  3.211438475E+02  2.568920002E+02  3.924342041E+02  8.744031191E-01 
       102  3.110662233E-02  1.769811535E-01  3.302644514E-02  7.554474658E+04  2.453081532E+02  3.262454824E+02  2.651129837E+02  3.699206343E+02  8.519904539E-01 
       103  3.362247542E-02  1.767159818E-01  3.532849163E-02  8.130515991E+04  2.439913821E+02  3.295490627E+02  2.704637008E+02  3.541809015E+02  8.253943697E-01 
       104  3.610895472E-02  1.763647845E-01  3.765120331E-02  8.180495789E+04  2.497916749E+02  3.297254539E+02  2.707418714E+02  3.533519258E+02  8.042539684E-01 
       105  3.856497337E-02  1.759966372E-01  4.000321012E-02  7.938386801E+04  2.580021224E+02  3.283859812E+02  2.685453260E+02  3.605193278E+02  7.900108420E-01 
       106  4.103059304E-02  1.755360248E-01  4.234569910E-02  7.788717963E+04  2.644282672E+02  3.276447038E+02  2.673314142E+02  3.650928296E+02  7.769466464E-01 
       107  4.340106546E-02  1.750377176E-01  4.474435622E-02  7.941098758E+04  2.666696287E+02  3.286314244E+02  2.689481454E+02  3.611893846E+02  7.619788577E-01 
       108  4.575540032E-02  1.745445103E-01  4.717695363E-02  8.408768726E+04  2.640773606E+02  3.313692980E+02  2.734552274E+02  3.485094485E+02  7.473645080E-01 
       109  4.807037784E-02  1.739953488E-01  4.963532790E-02  9.028258301E+04  2.596344547E+02  3.347097464E+02  2.789949236E+02  3.313864660E+02  7.324005701E-01 
       110  5.034733117E-02  1.734133857E-01  5.212084081E-02  9.516422949E+04  2.576337566E+02  3.372254066E+02  2.831973877E+02  3.178390331E+02  7.165182307E-01 
       111  5.258765486E-02  1.728405975E-01  5.464144749E-02  9.823541846E+04  2.584877453E+02  3.387233105E+02  2.857166653E+02  3.097387753E+02  7.005493343E-01 
       112  5.479076840E-02  1.722430532E-01  5.718902978E-02  1.010473376E+05  2.590252495E+02  3.400715494E+02  2.879958029E+02  3.026563377E+02  6.877122875E-01 
       113  5.694737683E-02  1.716020731E-01  5.976586917E-02  1.042341345E+05  2.585115833E+02  3.415937107E+02  2.905795426E+02  2.940517807E+02  6.767648789E-01 
       114  5.911848447E-02  1.709340834E-01  6.233872565E-02  1.074025105E+05  2.574755415E+02  3.431419639E+02  2.932188835E+02  2.861296185E+02  6.690634608E-01 
       115  6.119351897E-02  1.703313828E-01  6.496775561E-02  1.100876350E+05  2.568560047E+02  3.443610525E+02  2.953059511E+02  2.787518687E+02  6.615240611E-01 
       116  6.319798910E-02  1.696485115E-01  6.765543605E-02  1.125985306E+05  2.557192159E+02  3.454628034E+02  2.971982207E+02  2.715969992E+02  6.564538004E-01 
       117  6.520189851E-02  1.689621155E-01  7.034628384E-02  1.155554126E+05  2.536550760E+02  3.467070580E+02  2.993430529E+02  2.640862207E+02  6.553392503E-01 
       118  6.717992039E-02  1.682884043E-01  7.305807409E-02  1.173783374E+05  2.522301741E+02  3.475234356E+02  3.007539930E+02  2.590232439E+02  6.552094873E-01 
       119  6.910755662E-02  1.675987334E-01  7.579818779E-02  1.188838090E+05  2.512659924E+02  3.480720789E+02  3.017042732E+02  2.552968822E+02  6.553142746E-01 
       120  7.101404689E-02  1.668389198E-01  7.852135391E-02  1.199599943E+05  2.482452536E+02  3.485861509E+02  3.025962162E+02  2.520388783E+02  6.641491377E-01 
