nodenumber     x-coordinate     y-coordinate     z-coordinate         pressure velocity-magnitude      sound-speed      temperature rel-velocity-magnitude relative-velocity-angle 
         1 -2.216901913E-02  1.039879580E-01 -4.300600202E-02  8.756367183E+04  1.537444121E+02  3.330603240E+02  2.762413592E+02  2.357738149E+02  8.605634101E-01 
         2 -2.197401757E-02  1.042260031E-01 -4.002397295E-02  8.746048627E+04  1.544704506E+02  3.329932711E+02  2.761301811E+02  2.363860821E+02  8.589110260E-01 
         3 -2.150271627E-02  1.045375264E-01 -3.708169353E-02  8.736726318E+04  1.550422391E+02  3.329474707E+02  2.760542092E+02  2.370478517E+02  8.583840304E-01 
         4 -2.072290556E-02  1.049359494E-01 -3.421635317E-02  8.727154163E+04  1.556286459E+02  3.329031019E+02  2.759806199E+02  2.376878922E+02  8.578201272E-01 
         5 -1.964621854E-02  1.053757771E-01 -3.145501365E-02  8.715522119E+04  1.562903366E+02  3.328465233E+02  2.758869252E+02  2.383055592E+02  8.568496723E-01 
         6 -1.833909717E-02  1.058829391E-01 -2.880182754E-02  8.699617505E+04  1.571218286E+02  3.327557201E+02  2.757365203E+02  2.393372426E+02  8.563871086E-01 
         7 -1.686396899E-02  1.064019756E-01 -2.624136390E-02  8.680843042E+04  1.580439339E+02  3.326547050E+02  2.755690184E+02  2.405106440E+02  8.559190053E-01 
         8 -1.524276490E-02  1.069101094E-01 -2.376908005E-02  8.657039941E+04  1.591452661E+02  3.325212154E+02  2.753478541E+02  2.416670651E+02  8.544841316E-01 
         9 -1.353040875E-02  1.074492491E-01 -2.136449246E-02  8.629762964E+04  1.604578712E+02  3.323699517E+02  2.750974216E+02  2.429332809E+02  8.523712009E-01 
        10 -1.175719847E-02  1.079385502E-01 -1.899452623E-02  8.611332526E+04  1.616415024E+02  3.322795329E+02  2.749477341E+02  2.440364215E+02  8.504377194E-01 
        11 -9.920451205E-03  1.084473482E-01 -1.667649769E-02  8.603322672E+04  1.627204639E+02  3.322363285E+02  2.748762643E+02  2.447064968E+02  8.474276275E-01 
        12 -8.053093039E-03  1.089314126E-01 -1.437870322E-02  8.622507648E+04  1.633938088E+02  3.323361903E+02  2.750415086E+02  2.447277429E+02  8.444352490E-01 
        13 -6.139911673E-03  1.093816015E-01 -1.211111235E-02  8.667651514E+04  1.625527263E+02  3.326016893E+02  2.754811039E+02  2.431665463E+02  8.441403955E-01 
        14 -4.213714023E-03  1.098625599E-01 -9.853315987E-03  8.753226025E+04  1.606887407E+02  3.330420570E+02  2.762111702E+02  2.405591269E+02  8.459443524E-01 
        15 -2.267252226E-03  1.102821410E-01 -7.616721013E-03  8.856651660E+04  1.564322901E+02  3.335942497E+02  2.771279240E+02  2.370030403E+02  8.577615805E-01 
        16 -3.058463972E-04  1.106716081E-01 -5.380345181E-03  8.933133740E+04  1.500044227E+02  3.339605474E+02  2.777369976E+02  2.344467645E+02  8.854189534E-01 
        17  1.649896870E-03  1.110991589E-01 -3.144821902E-03  8.729519373E+04  1.465208073E+02  3.328571348E+02  2.759079003E+02  2.421231914E+02  9.321498210E-01 
        18  3.605378217E-03  1.114680886E-01 -8.997268064E-04  7.549966638E+04  1.780744133E+02  3.260905838E+02  2.648025274E+02  2.909975033E+02  9.474948607E-01 
        19  5.548952344E-03  1.118349081E-01  1.356589372E-03  6.978749738E+04  2.107776916E+02  3.224347732E+02  2.589003937E+02  3.083085580E+02  8.406318929E-01 
        20  7.472030685E-03  1.121892539E-01  3.633809071E-03  7.294757042E+04  2.117524891E+02  3.247647251E+02  2.626590468E+02  2.973570076E+02  7.895357728E-01 
        21  9.366594022E-03  1.125505666E-01  5.932977735E-03  7.669278137E+04  2.098045101E+02  3.269453239E+02  2.661945353E+02  2.870027912E+02  7.588306940E-01 
        22  1.122147558E-02  1.129077905E-01  8.263617067E-03  7.902310812E+04  2.094128658E+02  3.283313854E+02  2.684555666E+02  2.779231467E+02  7.266627193E-01 
        23  1.303284284E-02  1.132507638E-01  1.062953057E-02  8.050780424E+04  2.117636155E+02  3.291651500E+02  2.698199332E+02  2.725887249E+02  6.956175817E-01 
        24  1.479928419E-02  1.136234762E-01  1.303021626E-02  8.166737035E+04  2.158980199E+02  3.298441397E+02  2.709343064E+02  2.685984291E+02  6.606845537E-01 
        25  1.649617427E-02  1.139938279E-01  1.547769530E-02  8.273358319E+04  2.203258939E+02  3.304463799E+02  2.719240830E+02  2.644961214E+02  6.234778310E-01 
        26  1.811807173E-02  1.143837002E-01  1.797032872E-02  8.346519971E+04  2.255562353E+02  3.307999415E+02  2.725055523E+02  2.624163408E+02  5.893105632E-01 
        27  1.968166241E-02  1.148013513E-01  2.049621310E-02  8.352361053E+04  2.326272621E+02  3.307783091E+02  2.724697332E+02  2.636587255E+02  5.576368477E-01 
        28  2.119101764E-02  1.152299366E-01  2.305322148E-02  8.297291967E+04  2.415232770E+02  3.304346166E+02  2.719036750E+02  2.671948458E+02  5.250330476E-01 
        29  2.266338778E-02  1.156643914E-01  2.563116057E-02  8.234945966E+04  2.503740674E+02  3.300862842E+02  2.713308719E+02  2.700554130E+02  4.901087519E-01 
        30  2.408077791E-02  1.161159634E-01  2.823658064E-02  8.182962250E+04  2.588212352E+02  3.298008909E+02  2.708618908E+02  2.721238875E+02  4.548006444E-01 
        31  2.544088325E-02  1.165921105E-01  3.086849856E-02  8.131895898E+04  2.672833810E+02  3.294717131E+02  2.703217568E+02  2.746164198E+02  4.211673071E-01 
        32  2.674433127E-02  1.170738851E-01  3.352942364E-02  8.077463916E+04  2.754529917E+02  3.291291747E+02  2.697600341E+02  2.774951437E+02  3.906875560E-01 
        33  2.797950643E-02  1.175445507E-01  3.622298897E-02  8.024884244E+04  2.831068774E+02  3.288327293E+02  2.692740545E+02  2.800667471E+02  3.619723145E-01 
        34  2.916313541E-02  1.180056499E-01  3.893937175E-02  7.995553056E+04  2.900505720E+02  3.286783391E+02  2.690210844E+02  2.816602088E+02  3.333438497E-01 
        35  3.031249539E-02  1.184785399E-01  4.167042727E-02  8.007856952E+04  2.957341821E+02  3.287758284E+02  2.691805973E+02  2.821377031E+02  3.068750617E-01 
        36  3.139929926E-02  1.189405785E-01  4.442941843E-02  8.032942026E+04  3.011139205E+02  3.289554456E+02  2.694748913E+02  2.822764856E+02  2.806739406E-01 
        37  3.242013936E-02  1.193808800E-01  4.721660669E-02  8.084181104E+04  3.063806468E+02  3.292378931E+02  2.699378923E+02  2.817281172E+02  2.521199613E-01 
        38  3.340677803E-02  1.198011670E-01  5.002067675E-02  8.204743628E+04  3.092796828E+02  3.299329612E+02  2.710791706E+02  2.785007575E+02  2.254220897E-01 
        39  3.430413654E-02  1.201853153E-01  5.285529857E-02  8.369932690E+04  3.106054773E+02  3.308915691E+02  2.726572304E+02  2.736025248E+02  2.003025683E-01 
        40  3.515433510E-02  1.205874318E-01  5.570324370E-02  8.577086621E+04  3.105561924E+02  3.320644360E+02  2.745942841E+02  2.675024815E+02  1.779055987E-01 
        41  3.592907297E-02  1.209644065E-01  5.857535950E-02  8.814762158E+04  3.089746571E+02  3.333807011E+02  2.767760515E+02  2.603256154E+02  1.597654410E-01 
        42  3.664355424E-02  1.213334730E-01  6.146049591E-02  9.064099402E+04  3.060106564E+02  3.346664414E+02  2.789147167E+02  2.525611348E+02  1.473051226E-01 
        43  3.727845098E-02  1.217084379E-01  6.437276718E-02  9.295658618E+04  3.023556118E+02  3.357943001E+02  2.807969723E+02  2.453010015E+02  1.413563336E-01 
        44  3.781448665E-02  1.220744111E-01  6.730672953E-02  9.479137744E+04  2.987245073E+02  3.367264385E+02  2.823574200E+02  2.395330257E+02  1.419662107E-01 
        45  3.826762164E-02  1.224563704E-01  7.025293559E-02  9.600085248E+04  2.958999057E+02  3.373987892E+02  2.834855976E+02  2.357834684E+02  1.464734800E-01 
        46  3.856443464E-02  1.228195695E-01  7.317567491E-02  9.662284375E+04  2.943366470E+02  3.378012085E+02  2.841624527E+02  2.341074829E+02  1.519463547E-01 
        47  3.882754171E-02  1.231963568E-01  7.616928387E-02  9.684044833E+04  2.929585329E+02  3.383934648E+02  2.851611687E+02  2.324487514E+02  1.568638667E-01 
        48  3.896508106E-02  1.235573809E-01  7.913505459E-02  9.680088672E+04  2.894213982E+02  3.394136124E+02  2.868950272E+02  2.267192841E+02  1.609900072E-01 
        49  3.903512947E-02  1.239238609E-01  8.213137167E-02  9.664818909E+04  2.807374315E+02  3.412932689E+02  2.901046863E+02  2.111720929E+02  1.669085622E-01 
        50  3.900153017E-02  1.243001337E-01  8.510504302E-02  9.640831628E+04  2.656526344E+02  3.442918977E+02  2.952379768E+02  1.828753789E+02  1.706482724E-01 
        51  3.889299026E-02  1.246700891E-01  8.806950082E-02  9.621094220E+04  2.483313272E+02  3.478905952E+02  3.014412444E+02  1.379885054E+02  1.453245106E-01 
        52  3.870303970E-02  1.250405990E-01  9.105247242E-02  9.643560620E+04  2.411044197E+02  3.505574050E+02  3.060518451E+02  9.456022072E+01 -1.455637359E-02 
        53  3.847530202E-02  1.253810613E-01  9.402032493E-02  9.732150214E+04  2.378811915E+02  3.526796587E+02  3.097615924E+02  5.654637280E+01 -3.982239570E-01 
        54  3.809583015E-02  1.257752167E-01  9.695318516E-02  9.785775684E+04  2.303175201E+02  3.537455559E+02  3.116246681E+02  3.535466504E+01 -1.522646159E+00 
        55  3.767199372E-02  1.261489404E-01  9.992435767E-02  9.860316406E+04  2.401322279E+02  3.525911598E+02  3.095931525E+02  4.282252562E+01 -1.494154982E+00 
        56  3.723780727E-02  1.265196365E-01  1.028569506E-01  1.008699183E+05  2.441206079E+02  3.513887203E+02  3.074863898E+02  5.804942723E+01 -1.172519561E+00 
        57  3.672955052E-02  1.269046997E-01  1.057947981E-01  1.038273210E+05  2.402976680E+02  3.505872264E+02  3.060862017E+02  9.305910254E+01 -2.042191084E-01 
        58  3.615520807E-02  1.273091289E-01  1.087154776E-01  1.059491760E+05  2.485320511E+02  3.488671227E+02  3.030924006E+02  1.395460982E+02  8.597993589E-02 
        59  3.556812424E-02  1.277144368E-01  1.116309472E-01  1.066773486E+05  2.586656022E+02  3.463286207E+02  2.986972148E+02  1.782993085E+02  1.860655150E-01 
        60  3.495651588E-02  1.281329458E-01  1.145394580E-01  1.072629480E+05  2.631793766E+02  3.441969018E+02  2.950259867E+02  1.945867047E+02  2.153401156E-01 
        61  3.433795015E-02  1.285471243E-01  1.174457346E-01  1.079146790E+05  2.622063503E+02  3.435203614E+02  2.938654385E+02  1.926409814E+02  2.153515175E-01 
        62  3.376061330E-02  1.289460490E-01  1.203607660E-01  1.083243385E+05  2.624310784E+02  3.435255108E+02  2.938739738E+02  1.908782020E+02  2.090986292E-01 
        63  3.331803132E-02  1.293309423E-01  1.232882868E-01  1.083944277E+05  2.660829197E+02  3.433895388E+02  2.936415372E+02  1.940451850E+02  1.990756785E-01 
        64  3.310586596E-02  1.296649637E-01  1.262581306E-01  1.082406223E+05  2.700776770E+02  3.431579788E+02  2.932455642E+02  1.981374146E+02  1.905947861E-01 
        65  3.306639982E-02  1.299493947E-01  1.292495641E-01  1.079696723E+05  2.729652527E+02  3.429620917E+02  2.929108353E+02  2.013701870E+02  1.862031044E-01 
        66  3.322486525E-02  1.302097713E-01  1.322380794E-01  1.076853806E+05  2.745820192E+02  3.428533759E+02  2.927251250E+02  2.033119207E+02  1.852999058E-01 
        67  3.356462385E-02  1.304573038E-01  1.352130229E-01  1.074215647E+05  2.756092433E+02  3.427907649E+02  2.926182274E+02  2.045338865E+02  1.857601230E-01 
        68  3.400410102E-02  1.306751199E-01  1.381765647E-01  1.071607072E+05  2.765704510E+02  3.427172008E+02  2.924926836E+02  2.058252373E+02  1.867759328E-01 
        69  3.451963359E-02  1.308741206E-01  1.411278790E-01  1.068909872E+05  2.776288688E+02  3.426241131E+02  2.923337049E+02  2.071400449E+02  1.873308348E-01 
        70  3.508991352E-02  1.310576265E-01  1.440660380E-01  1.066291188E+05  2.786789372E+02  3.425292711E+02  2.921718128E+02  2.085707209E+02  1.883788237E-01 
        71  3.570211579E-02  1.312503676E-01  1.470000000E-01  1.063098359E+05  2.798957787E+02  3.424032745E+02  2.919565277E+02  2.103423653E+02  1.893864740E-01 
        72 -2.843361623E-02  1.708417341E-01 -4.258217492E-02  8.204307764E+04  1.839043312E+02  3.299636250E+02  2.711284895E+02  3.446503077E+02  1.007940635E+00 
        73 -2.838826984E-02  1.709653765E-01 -3.916427879E-02  8.208018176E+04  1.841655679E+02  3.299725544E+02  2.711434269E+02  3.448774824E+02  1.007542466E+00 
        74 -2.835908450E-02  1.711140563E-01 -3.574649433E-02  8.234238867E+04  1.836438202E+02  3.301539731E+02  2.714415936E+02  3.432412596E+02  1.006429177E+00 
        75 -2.838361088E-02  1.712589164E-01 -3.232950605E-02  8.284962891E+04  1.831359282E+02  3.304347420E+02  2.719037905E+02  3.428978939E+02  1.007651031E+00 
        76 -2.841360827E-02  1.714319125E-01 -2.891476756E-02  8.346114075E+04  1.825910215E+02  3.307362313E+02  2.724001184E+02  3.415229115E+02  1.007166008E+00 
        77 -2.833774301E-02  1.716334782E-01 -2.549995819E-02  8.408264780E+04  1.805513529E+02  3.311732131E+02  2.731200845E+02  3.391371142E+02  1.009870877E+00 
        78 -2.791452343E-02  1.719215161E-01 -2.212016887E-02  8.439298438E+04  1.800240326E+02  3.313166828E+02  2.733566742E+02  3.394480839E+02  1.012141790E+00 
        79 -2.700703325E-02  1.722886754E-01 -1.884820631E-02  8.421566626E+04  1.801992083E+02  3.311387339E+02  2.730631828E+02  3.404491339E+02  1.013342403E+00 
        80 -2.544395246E-02  1.727209334E-01 -1.584518523E-02  8.325399396E+04  1.811884303E+02  3.306275773E+02  2.722210124E+02  3.431935542E+02  1.014714004E+00 
        81 -2.351536464E-02  1.732363399E-01 -1.306823492E-02  8.140420020E+04  1.851269282E+02  3.295669467E+02  2.704777551E+02  3.484606984E+02  1.010942338E+00 
        82 -2.134527601E-02  1.737374909E-01 -1.047435973E-02  7.863445483E+04  1.907118476E+02  3.279917456E+02  2.678993188E+02  3.562717198E+02  1.006583167E+00 
        83 -1.897326710E-02  1.742189522E-01 -8.035177519E-03  7.566974292E+04  1.988821971E+02  3.261824501E+02  2.649517138E+02  3.643008304E+02  9.945591581E-01 
        84 -1.652827274E-02  1.746780172E-01 -5.688541800E-03  7.349873877E+04  2.054299557E+02  3.248333640E+02  2.627642019E+02  3.714625044E+02  9.867935386E-01 
        85 -1.397929867E-02  1.751251779E-01 -3.446989688E-03  7.265782263E+04  2.098566442E+02  3.243166184E+02  2.619290442E+02  3.731037145E+02  9.753021058E-01 
        86 -1.139011487E-02  1.755573757E-01 -1.256774906E-03  7.364156885E+04  2.103518019E+02  3.249212937E+02  2.629081960E+02  3.723136668E+02  9.721952807E-01 
        87 -8.734274343E-03  1.759085237E-01  8.667805443E-04  7.863716504E+04  2.040658686E+02  3.279749391E+02  2.678803360E+02  3.584360366E+02  9.660307700E-01 
        88 -6.073383534E-03  1.762548475E-01  2.984781313E-03  8.862186774E+04  1.912179039E+02  3.334575305E+02  2.769115455E+02  3.307794287E+02  9.624723955E-01 
        89 -3.359730182E-03  1.765819110E-01  5.053045394E-03  9.814069110E+04  1.764213132E+02  3.381601846E+02  2.847685703E+02  3.056506970E+02  9.797222679E-01 
        90 -6.741955509E-04  1.768270807E-01  7.130208361E-03  9.763419582E+04  1.664190498E+02  3.380530586E+02  2.845905982E+02  3.106063294E+02  1.020301040E+00 
        91  2.027043660E-03  1.770783858E-01  9.208570588E-03  7.877657553E+04  1.948190244E+02  3.277236516E+02  2.674661809E+02  3.598848361E+02  9.999594255E-01 
        92  4.731686997E-03  1.772422585E-01  1.127155269E-02  7.295297371E+04  2.130942715E+02  3.245021617E+02  2.622311613E+02  3.744991114E+02  9.667916647E-01 
        93  7.454465044E-03  1.773874983E-01  1.334309669E-02  7.349658583E+04  2.105915436E+02  3.246937650E+02  2.625397403E+02  3.743642451E+02  9.747860520E-01 
        94  1.015989937E-02  1.775222933E-01  1.545596277E-02  7.078306335E+04  2.179792260E+02  3.229662260E+02  2.597575743E+02  3.818188231E+02  9.655555037E-01 
        95  1.284858280E-02  1.775661421E-01  1.756817794E-02  6.737161572E+04  2.276382055E+02  3.208043967E+02  2.562917987E+02  3.911451283E+02  9.530438720E-01 
        96  1.551966693E-02  1.776138061E-01  1.970369132E-02  6.435766754E+04  2.369043121E+02  3.187335079E+02  2.529954932E+02  4.011354561E+02  9.443032593E-01 
        97  1.817410325E-02  1.776258069E-01  2.186017323E-02  6.175219006E+04  2.456679466E+02  3.169275427E+02  2.501351118E+02  4.090835791E+02  9.331313828E-01 
        98  2.080993586E-02  1.775631240E-01  2.403936301E-02  5.991770142E+04  2.535472608E+02  3.156104383E+02  2.480577960E+02  4.141294470E+02  9.184171408E-01 
        99  2.341570779E-02  1.774969016E-01  2.625394818E-02  5.948575464E+04  2.587804379E+02  3.153070774E+02  2.475803342E+02  4.162804680E+02  9.056711607E-01 
       100  2.600295182E-02  1.773818036E-01  2.848806157E-02  6.131192773E+04  2.593661041E+02  3.167572985E+02  2.498795357E+02  4.101945114E+02  8.897890747E-01 
       101  2.856627515E-02  1.771883875E-01  3.074502562E-02  6.669488916E+04  2.542836208E+02  3.206068592E+02  2.560360966E+02  3.935331488E+02  8.709376790E-01 
       102  3.110662233E-02  1.769811535E-01  3.302644514E-02  7.491649683E+04  2.455595617E+02  3.261532555E+02  2.649746027E+02  3.690498734E+02  8.504432645E-01 
       103  3.362247542E-02  1.767159818E-01  3.532849163E-02  8.171726367E+04  2.414401083E+02  3.303321867E+02  2.717577882E+02  3.495733261E+02  8.267996628E-01 
       104  3.610895472E-02  1.763647845E-01  3.765120331E-02  8.313098779E+04  2.460563824E+02  3.309349074E+02  2.727342415E+02  3.475243692E+02  8.072746303E-01 
       105  3.856497337E-02  1.759966372E-01  4.000321012E-02  8.060432315E+04  2.557593710E+02  3.293490962E+02  2.701262063E+02  3.564747627E+02  7.905772324E-01 
       106  4.103059304E-02  1.755360248E-01  4.234569910E-02  7.836568801E+04  2.648437533E+02  3.279906435E+02  2.678982037E+02  3.635981361E+02  7.731027508E-01 
       107  4.340106546E-02  1.750377176E-01  4.474435622E-02  7.890373129E+04  2.674558311E+02  3.285377958E+02  2.687936503E+02  3.613870724E+02  7.599855070E-01 
       108  4.575540032E-02  1.745445103E-01  4.717695363E-02  8.262629321E+04  2.664702940E+02  3.306775222E+02  2.723120215E+02  3.512787066E+02  7.444980610E-01 
       109  4.807037784E-02  1.739953488E-01  4.963532790E-02  8.874613721E+04  2.620297852E+02  3.339795294E+02  2.777825775E+02  3.348979387E+02  7.303858716E-01 
       110  5.034733117E-02  1.734133857E-01  5.212084081E-02  9.479948926E+04  2.576736450E+02  3.371724300E+02  2.831124325E+02  3.190139542E+02  7.186566405E-01 
       111  5.258765486E-02  1.728405975E-01  5.464144749E-02  9.894267822E+04  2.569915218E+02  3.392183704E+02  2.865533695E+02  3.078162975E+02  7.031150758E-01 
       112  5.479076840E-02  1.722430532E-01  5.718902978E-02  1.018512163E+05  2.574856920E+02  3.405874710E+02  2.888702097E+02  3.001857243E+02  6.896239836E-01 
       113  5.694737683E-02  1.716020731E-01  5.976586917E-02  1.049083739E+05  2.566776438E+02  3.420227864E+02  2.913101928E+02  2.926208832E+02  6.815383048E-01 
       114  5.911848447E-02  1.709340834E-01  6.233872565E-02  1.082184955E+05  2.553584974E+02  3.435449549E+02  2.939078079E+02  2.833280676E+02  6.730998176E-01 
       115  6.119351897E-02  1.703313828E-01  6.496775561E-02  1.108637249E+05  2.545254617E+02  3.446759033E+02  2.958462701E+02  2.758272920E+02  6.666401215E-01 
       116  6.319798910E-02  1.696485115E-01  6.765543605E-02  1.130334840E+05  2.535057702E+02  3.455300388E+02  2.973139858E+02  2.703744874E+02  6.636159401E-01 
       117  6.520189851E-02  1.689621155E-01  7.034628384E-02  1.151789341E+05  2.516736803E+02  3.464555187E+02  2.989088335E+02  2.642931795E+02  6.634043809E-01 
       118  6.717992039E-02  1.682884043E-01  7.305807409E-02  1.170338491E+05  2.503673487E+02  3.471417999E+02  3.000939093E+02  2.597880745E+02  6.636881121E-01 
       119  6.910755662E-02  1.675987334E-01  7.579818779E-02  1.184788899E+05  2.497708507E+02  3.477142439E+02  3.010843360E+02  2.578753409E+02  6.644191071E-01 
       120  7.101404689E-02  1.668389198E-01  7.852135391E-02  1.196060840E+05  2.477098581E+02  3.483078187E+02  3.021131430E+02  2.558517461E+02  6.704403325E-01 
