nodenumber     x-coordinate     y-coordinate     z-coordinate         pressure velocity-magnitude      sound-speed      temperature rel-velocity-magnitude relative-velocity-angle 
         1 -2.216901913E-02  1.039879580E-01 -4.300600202E-02  8.761286142E+04  1.536726215E+02  3.330778870E+02  2.762705038E+02  2.356216606E+02  8.603979533E-01 
         2 -2.197401757E-02  1.042260031E-01 -4.002397295E-02  8.748309714E+04  1.544563169E+02  3.330048872E+02  2.761494112E+02  2.364361340E+02  8.591714711E-01 
         3 -2.150271627E-02  1.045375264E-01 -3.708169353E-02  8.736566327E+04  1.550866408E+02  3.329457719E+02  2.760514140E+02  2.369490701E+02  8.577874359E-01 
         4 -2.072290556E-02  1.049359494E-01 -3.421635317E-02  8.725786414E+04  1.557437367E+02  3.328931308E+02  2.759641161E+02  2.377213571E+02  8.572947644E-01 
         5 -1.964621854E-02  1.053757771E-01 -3.145501365E-02  8.714202393E+04  1.563947124E+02  3.328337479E+02  2.758657031E+02  2.385121531E+02  8.569483254E-01 
         6 -1.833909717E-02  1.058829391E-01 -2.880182754E-02  8.701296924E+04  1.570901465E+02  3.327677097E+02  2.757563338E+02  2.393110557E+02  8.564296588E-01 
         7 -1.686396899E-02  1.064019756E-01 -2.624136390E-02  8.684275171E+04  1.579354687E+02  3.326759300E+02  2.756042299E+02  2.403740911E+02  8.560400587E-01 
         8 -1.524276490E-02  1.069101094E-01 -2.376908005E-02  8.660420740E+04  1.589355524E+02  3.325502033E+02  2.753958592E+02  2.415146456E+02  8.550676014E-01 
         9 -1.353040875E-02  1.074492491E-01 -2.136449246E-02  8.634214832E+04  1.603835657E+02  3.323905411E+02  2.751315393E+02  2.428803461E+02  8.525584331E-01 
        10 -1.175719847E-02  1.079385502E-01 -1.899452623E-02  8.609757727E+04  1.618650606E+02  3.322479081E+02  2.748953946E+02  2.442761643E+02  8.500152342E-01 
        11 -9.920451205E-03  1.084473482E-01 -1.667649769E-02  8.600269943E+04  1.628427362E+02  3.322214248E+02  2.748517239E+02  2.451199262E+02  8.482939112E-01 
        12 -8.053093039E-03  1.089314126E-01 -1.437870322E-02  8.618214960E+04  1.631774677E+02  3.323371733E+02  2.750431734E+02  2.446755862E+02  8.454105444E-01 
        13 -6.139911673E-03  1.093816015E-01 -1.211111235E-02  8.670317725E+04  1.626256943E+02  3.326087828E+02  2.754929242E+02  2.431483202E+02  8.436578345E-01 
        14 -4.213714023E-03  1.098625599E-01 -9.853315987E-03  8.754211572E+04  1.605229635E+02  3.330466938E+02  2.762188549E+02  2.404698582E+02  8.465654887E-01 
        15 -2.267252226E-03  1.102821410E-01 -7.616721013E-03  8.856147461E+04  1.566392164E+02  3.335726166E+02  2.770920610E+02  2.372163019E+02  8.573942892E-01 
        16 -3.058463972E-04  1.106716081E-01 -5.380345181E-03  8.937058105E+04  1.499686208E+02  3.339866962E+02  2.777804518E+02  2.341067319E+02  8.844308369E-01 
        17  1.649896870E-03  1.110991589E-01 -3.144821902E-03  8.734116956E+04  1.477761638E+02  3.328097172E+02  2.758285487E+02  2.432543955E+02  9.296028055E-01 
        18  3.605378217E-03  1.114680886E-01 -8.997268064E-04  7.554665808E+04  1.747565467E+02  3.263014379E+02  2.651456761E+02  2.868813128E+02  9.485618193E-01 
        19  5.548952344E-03  1.118349081E-01  1.356589372E-03  6.995479602E+04  2.097244173E+02  3.227465341E+02  2.594026005E+02  3.089443367E+02  8.494839957E-01 
        20  7.472030685E-03  1.121892539E-01  3.633809071E-03  7.296625195E+04  2.111578163E+02  3.247993507E+02  2.627142860E+02  2.966965140E+02  7.901470007E-01 
        21  9.366594022E-03  1.125505666E-01  5.932977735E-03  7.664416089E+04  2.087355236E+02  3.269136713E+02  2.661440806E+02  2.854584732E+02  7.585474881E-01 
        22  1.122147558E-02  1.129077905E-01  8.263617067E-03  7.900275444E+04  2.084706293E+02  3.283483239E+02  2.684834097E+02  2.770022250E+02  7.286412208E-01 
        23  1.303284284E-02  1.132507638E-01  1.062953057E-02  8.055100233E+04  2.101786294E+02  3.293299816E+02  2.700897653E+02  2.699577731E+02  6.944796808E-01 
        24  1.479928419E-02  1.136234762E-01  1.303021626E-02  8.171085480E+04  2.147624794E+02  3.299521911E+02  2.711109652E+02  2.670760865E+02  6.605255548E-01 
        25  1.649617427E-02  1.139938279E-01  1.547769530E-02  8.269947516E+04  2.202367251E+02  3.304221246E+02  2.718834436E+02  2.656599417E+02  6.275457735E-01 
        26  1.811807173E-02  1.143837002E-01  1.797032872E-02  8.336020337E+04  2.261652706E+02  3.307155862E+02  2.723663201E+02  2.646271958E+02  5.939344941E-01 
        27  1.968166241E-02  1.148013513E-01  2.049621310E-02  8.342897235E+04  2.332574661E+02  3.307311623E+02  2.723920150E+02  2.645682666E+02  5.577894165E-01 
        28  2.119101764E-02  1.152299366E-01  2.305322148E-02  8.289242934E+04  2.420164030E+02  3.304423942E+02  2.719166202E+02  2.665011741E+02  5.197795123E-01 
        29  2.266338778E-02  1.156643914E-01  2.563116057E-02  8.233942249E+04  2.509817772E+02  3.300754712E+02  2.713132410E+02  2.690496168E+02  4.830748101E-01 
        30  2.408077791E-02  1.161159634E-01  2.823658064E-02  8.185663593E+04  2.591382933E+02  3.297666650E+02  2.708055694E+02  2.715307539E+02  4.508203305E-01 
        31  2.544088325E-02  1.165921105E-01  3.086849856E-02  8.131937305E+04  2.669704816E+02  3.294308066E+02  2.702543082E+02  2.741043534E+02  4.209071444E-01 
        32  2.674433127E-02  1.170738851E-01  3.352942364E-02  8.075000293E+04  2.747495606E+02  3.290897431E+02  2.696949725E+02  2.768650897E+02  3.921652036E-01 
        33  2.797950643E-02  1.175445507E-01  3.622298897E-02  8.023174640E+04  2.825661771E+02  3.287850882E+02  2.691957632E+02  2.796880754E+02  3.634843549E-01 
        34  2.916313541E-02  1.180056499E-01  3.893937175E-02  7.994224303E+04  2.899313864E+02  3.286042274E+02  2.688997636E+02  2.818769198E+02  3.346935267E-01 
        35  3.031249539E-02  1.184785399E-01  4.167042727E-02  8.006641418E+04  2.958238599E+02  3.286744542E+02  2.690146859E+02  2.824005936E+02  3.074058834E-01 
        36  3.139929926E-02  1.189405785E-01  4.442941843E-02  8.034252304E+04  3.011768022E+02  3.288662276E+02  2.693285462E+02  2.823251337E+02  2.806164676E-01 
        37  3.242013936E-02  1.193808800E-01  4.721660669E-02  8.083170340E+04  3.059784278E+02  3.292498123E+02  2.699573548E+02  2.812840762E+02  2.525222779E-01 
        38  3.340677803E-02  1.198011670E-01  5.002067675E-02  8.200554367E+04  3.087889491E+02  3.299751841E+02  2.711485081E+02  2.780857710E+02  2.263793243E-01 
        39  3.430413654E-02  1.201853153E-01  5.285529857E-02  8.359840479E+04  3.103553467E+02  3.308969278E+02  2.726659050E+02  2.735086441E+02  2.012800882E-01 
        40  3.515433510E-02  1.205874318E-01  5.570324370E-02  8.559208447E+04  3.106065521E+02  3.319977226E+02  2.744836407E+02  2.676389523E+02  1.781495744E-01 
        41  3.592907297E-02  1.209644065E-01  5.857535950E-02  8.790108936E+04  3.093179722E+02  3.332448683E+02  2.765502043E+02  2.607318988E+02  1.594404839E-01 
        42  3.664355424E-02  1.213334730E-01  6.146049591E-02  9.035406470E+04  3.065867820E+02  3.344960346E+02  2.786305876E+02  2.532545033E+02  1.468146057E-01 
        43  3.727845098E-02  1.217084379E-01  6.437276718E-02  9.268410693E+04  3.029906626E+02  3.356526289E+02  2.805601130E+02  2.460519857E+02  1.407285035E-01 
        44  3.781448665E-02  1.220744111E-01  6.730672953E-02  9.460473047E+04  2.993472309E+02  3.366375589E+02  2.822084265E+02  2.401155639E+02  1.406222214E-01 
        45  3.826762164E-02  1.224563704E-01  7.025293559E-02  9.592401959E+04  2.964680920E+02  3.373641934E+02  2.834276485E+02  2.361649171E+02  1.445897212E-01 
        46  3.856443464E-02  1.228195695E-01  7.317567491E-02  9.663081641E+04  2.946517715E+02  3.378347321E+02  2.842187424E+02  2.341459122E+02  1.501416713E-01 
        47  3.882754171E-02  1.231963568E-01  7.616928387E-02  9.685606079E+04  2.931716595E+02  3.384424654E+02  2.852435687E+02  2.324227718E+02  1.553573132E-01 
        48  3.896508106E-02  1.235573809E-01  7.913505459E-02  9.679989063E+04  2.902758064E+02  3.393296585E+02  2.867513733E+02  2.272637215E+02  1.572925262E-01 
        49  3.903512947E-02  1.239238609E-01  8.213137167E-02  9.665793420E+04  2.818482196E+02  3.411030927E+02  2.897784579E+02  2.126523226E+02  1.636841500E-01 
        50  3.900153017E-02  1.243001337E-01  8.510504302E-02  9.661170087E+04  2.669483932E+02  3.440418458E+02  2.948084114E+02  1.851125368E+02  1.669272589E-01 
        51  3.889299026E-02  1.246700891E-01  8.806950082E-02  9.670668805E+04  2.493308952E+02  3.477938282E+02  3.012750256E+02  1.396843760E+02  1.373861990E-01 
        52  3.870303970E-02  1.250405990E-01  9.105247242E-02  9.695125122E+04  2.383279438E+02  3.513089533E+02  3.073647594E+02  9.473886335E+01  2.910665807E-02 
        53  3.847530202E-02  1.253810613E-01  9.402032493E-02  9.704699176E+04  2.334965107E+02  3.529318004E+02  3.102040815E+02  5.682157745E+01 -1.856900309E-01 
        54  3.809583015E-02  1.257752167E-01  9.695318516E-02  9.771935840E+04  2.303030281E+02  3.535154343E+02  3.112208824E+02  3.639402843E+01 -1.561539024E+00 
        55  3.767199372E-02  1.261489404E-01  9.992435767E-02  9.911113477E+04  2.388637824E+02  3.528541183E+02  3.100546474E+02  3.996967804E+01 -1.449593231E+00 
        56  3.723780727E-02  1.265196365E-01  1.028569506E-01  1.015603121E+05  2.489070345E+02  3.519087954E+02  3.083961493E+02  5.568258907E+01 -1.137446856E+00 
        57  3.672955052E-02  1.269046997E-01  1.057947981E-01  1.037111941E+05  2.528993349E+02  3.507810454E+02  3.064225307E+02  9.283661056E+01 -3.725606356E-01 
        58  3.615520807E-02  1.273091289E-01  1.087154776E-01  1.052533103E+05  2.511339684E+02  3.485373478E+02  3.025189657E+02  1.421336522E+02  9.009217634E-02 
        59  3.556812424E-02  1.277144368E-01  1.116309472E-01  1.069099951E+05  2.533944337E+02  3.455684450E+02  2.973856442E+02  1.799123665E+02  2.302095655E-01 
        60  3.495651588E-02  1.281329458E-01  1.145394580E-01  1.079682324E+05  2.588330636E+02  3.437722864E+02  2.942972693E+02  1.891400986E+02  2.235044986E-01 
        61  3.433795015E-02  1.285471243E-01  1.174457346E-01  1.083693865E+05  2.614656093E+02  3.434505105E+02  2.937456813E+02  1.888718243E+02  2.065679498E-01 
        62  3.376061330E-02  1.289460490E-01  1.203607660E-01  1.083989163E+05  2.648465555E+02  3.434111915E+02  2.936784682E+02  1.914187160E+02  1.955616293E-01 
        63  3.331803132E-02  1.293309423E-01  1.232882868E-01  1.082533565E+05  2.687661285E+02  3.432677007E+02  2.934330208E+02  1.957947992E+02  1.883565470E-01 
        64  3.310586596E-02  1.296649637E-01  1.262581306E-01  1.080585207E+05  2.714685986E+02  3.431340427E+02  2.932045474E+02  1.992034743E+02  1.856839220E-01 
        65  3.306639982E-02  1.299493947E-01  1.292495641E-01  1.078624870E+05  2.729477702E+02  3.430630715E+02  2.930832937E+02  2.011277533E+02  1.853719586E-01 
        66  3.322486525E-02  1.302097713E-01  1.322380794E-01  1.076885641E+05  2.738797289E+02  3.430305975E+02  2.930277376E+02  2.023816858E+02  1.862070565E-01 
        67  3.356462385E-02  1.304573038E-01  1.352130229E-01  1.075103319E+05  2.749180781E+02  3.429622799E+02  2.929110911E+02  2.034943389E+02  1.862041543E-01 
        68  3.400410102E-02  1.306751199E-01  1.381765647E-01  1.072924597E+05  2.760522375E+02  3.428639941E+02  2.927432287E+02  2.048495383E+02  1.863845801E-01 
        69  3.451963359E-02  1.308741206E-01  1.411278790E-01  1.070471118E+05  2.772241256E+02  3.427518239E+02  2.925516388E+02  2.063475113E+02  1.869096642E-01 
        70  3.508991352E-02  1.310576265E-01  1.440660380E-01  1.067415876E+05  2.784864812E+02  3.426204739E+02  2.923274624E+02  2.081754551E+02  1.880975128E-01 
        71  3.570211579E-02  1.312503676E-01  1.470000000E-01  1.063150195E+05  2.801456528E+02  3.424037666E+02  2.919576454E+02  2.104690609E+02  1.883323081E-01 
        72 -2.843361623E-02  1.708417341E-01 -4.258217492E-02  8.202806299E+04  1.838740864E+02  3.299483862E+02  2.711033945E+02  3.444355278E+02  1.007560045E+00 
        73 -2.838826984E-02  1.709653765E-01 -3.916427879E-02  8.207004987E+04  1.842077277E+02  3.299687920E+02  2.711371529E+02  3.448489580E+02  1.007262669E+00 
        74 -2.835908450E-02  1.711140563E-01 -3.574649433E-02  8.236679712E+04  1.840741842E+02  3.301251380E+02  2.713941972E+02  3.439945166E+02  1.006353873E+00 
        75 -2.838361088E-02  1.712589164E-01 -3.232950605E-02  8.290697266E+04  1.829029427E+02  3.304883528E+02  2.719918528E+02  3.419384260E+02  1.006730128E+00 
        76 -2.841360827E-02  1.714319125E-01 -2.891476756E-02  8.351027234E+04  1.825307674E+02  3.307865276E+02  2.724826717E+02  3.420132728E+02  1.008118043E+00 
        77 -2.833774301E-02  1.716334782E-01 -2.549995819E-02  8.409019220E+04  1.811522589E+02  3.311231033E+02  2.730373795E+02  3.402834349E+02  1.009787749E+00 
        78 -2.791452343E-02  1.719215161E-01 -2.212016887E-02  8.449215967E+04  1.799569416E+02  3.313464394E+02  2.734057589E+02  3.388744698E+02  1.011387710E+00 
        79 -2.700703325E-02  1.722886754E-01 -1.884820631E-02  8.435013428E+04  1.795083280E+02  3.312625380E+02  2.732674265E+02  3.392246666E+02  1.013592947E+00 
        80 -2.544395246E-02  1.727209334E-01 -1.584518523E-02  8.322241595E+04  1.815213853E+02  3.305957642E+02  2.721688478E+02  3.435827274E+02  1.014356485E+00 
        81 -2.351536464E-02  1.732363399E-01 -1.306823492E-02  8.140558987E+04  1.843194883E+02  3.296601459E+02  2.706307395E+02  3.481757624E+02  1.013219719E+00 
        82 -2.134527601E-02  1.737374909E-01 -1.047435973E-02  7.872638791E+04  1.911506534E+02  3.280229421E+02  2.679493877E+02  3.558059222E+02  1.004064033E+00 
        83 -1.897326710E-02  1.742189522E-01 -8.035177519E-03  7.554080133E+04  1.994272128E+02  3.260683682E+02  2.647665094E+02  3.653953795E+02  9.948450276E-01 
        84 -1.652827274E-02  1.746780172E-01 -5.688541800E-03  7.330461676E+04  2.065355413E+02  3.246897936E+02  2.625329854E+02  3.724791546E+02  9.852362778E-01 
        85 -1.397929867E-02  1.751251779E-01 -3.446989688E-03  7.261144897E+04  2.103014879E+02  3.242038169E+02  2.617473011E+02  3.737807269E+02  9.751926735E-01 
        86 -1.139011487E-02  1.755573757E-01 -1.256774906E-03  7.380996155E+04  2.110781641E+02  3.249061685E+02  2.628830028E+02  3.722468228E+02  9.694281630E-01 
        87 -8.734274343E-03  1.759085237E-01  8.667805443E-04  7.898317133E+04  2.035288678E+02  3.281573818E+02  2.681746559E+02  3.579215770E+02  9.666519258E-01 
        88 -6.073383534E-03  1.762548475E-01  2.984781313E-03  8.860224811E+04  1.894595224E+02  3.336635454E+02  2.772500277E+02  3.311763117E+02  9.685531654E-01 
        89 -3.359730182E-03  1.765819110E-01  5.053045394E-03  9.815469281E+04  1.762465063E+02  3.382853916E+02  2.849794328E+02  3.041985524E+02  9.783567763E-01 
        90 -6.741955509E-04  1.768270807E-01  7.130208361E-03  9.775727882E+04  1.639145228E+02  3.382107757E+02  2.848539455E+02  3.077031975E+02  1.025395005E+00 
        91  2.027043660E-03  1.770783858E-01  9.208570588E-03  7.963742323E+04  1.916309336E+02  3.283189951E+02  2.684384284E+02  3.550014037E+02  1.001927414E+00 
        92  4.731686997E-03  1.772422585E-01  1.127155269E-02  7.288391400E+04  2.125500333E+02  3.244996522E+02  2.622253967E+02  3.758512909E+02  9.713958148E-01 
        93  7.454465044E-03  1.773874983E-01  1.334309669E-02  7.333761977E+04  2.100807841E+02  3.245984172E+02  2.623845081E+02  3.730899688E+02  9.740572250E-01 
        94  1.015989937E-02  1.775222933E-01  1.545596277E-02  7.067856865E+04  2.186024320E+02  3.228866896E+02  2.596308849E+02  3.837217420E+02  9.674829922E-01 
        95  1.284858280E-02  1.775661421E-01  1.756817794E-02  6.720304071E+04  2.289526237E+02  3.206201113E+02  2.559982204E+02  3.932105727E+02  9.531856244E-01 
        96  1.551966693E-02  1.776138061E-01  1.970369132E-02  6.422465149E+04  2.371348026E+02  3.186588125E+02  2.528767700E+02  4.004724603E+02  9.419314694E-01 
        97  1.817410325E-02  1.776258069E-01  2.186017323E-02  6.179906726E+04  2.450870984E+02  3.169615660E+02  2.501886473E+02  4.078545160E+02  9.319502926E-01 
        98  2.080993586E-02  1.775631240E-01  2.403936301E-02  6.010769409E+04  2.514430633E+02  3.159002986E+02  2.485127683E+02  4.117965126E+02  9.197505116E-01 
        99  2.341570779E-02  1.774969016E-01  2.625394818E-02  5.961422461E+04  2.562801757E+02  3.156487360E+02  2.481169639E+02  4.128936062E+02  9.063025545E-01 
       100  2.600295182E-02  1.773818036E-01  2.848806157E-02  6.132454663E+04  2.578719635E+02  3.169648952E+02  2.502055397E+02  4.083832502E+02  8.908483125E-01 
       101  2.856627515E-02  1.771883875E-01  3.074502562E-02  6.669012231E+04  2.538152771E+02  3.207737932E+02  2.562995644E+02  3.932235107E+02  8.718848601E-01 
       102  3.110662233E-02  1.769811535E-01  3.302644514E-02  7.496593408E+04  2.467369308E+02  3.260872431E+02  2.648638754E+02  3.708096104E+02  8.494643718E-01 
       103  3.362247542E-02  1.767159818E-01  3.532849163E-02  8.174816016E+04  2.440387397E+02  3.299556885E+02  2.711352277E+02  3.538181581E+02  8.249575291E-01 
       104  3.610895472E-02  1.763647845E-01  3.765120331E-02  8.310989685E+04  2.481529527E+02  3.306605468E+02  2.722790294E+02  3.502731242E+02  8.046537051E-01 
       105  3.856497337E-02  1.759966372E-01  4.000321012E-02  8.053043524E+04  2.559122680E+02  3.293481061E+02  2.701233883E+02  3.574066755E+02  7.915782062E-01 
       106  4.103059304E-02  1.755360248E-01  4.234569910E-02  7.826981760E+04  2.638046889E+02  3.281068354E+02  2.680874370E+02  3.640695123E+02  7.771722275E-01 
       107  4.340106546E-02  1.750377176E-01  4.474435622E-02  7.897647232E+04  2.670873864E+02  3.286627055E+02  2.689979338E+02  3.619631562E+02  7.621152024E-01 
       108  4.575540032E-02  1.745445103E-01  4.717695363E-02  8.281353552E+04  2.656776960E+02  3.308737078E+02  2.726357298E+02  3.513385491E+02  7.472750274E-01 
       109  4.807037784E-02  1.739953488E-01  4.963532790E-02  8.890203662E+04  2.611299334E+02  3.341084566E+02  2.779943647E+02  3.342901936E+02  7.324522734E-01 
       110  5.034733117E-02  1.734133857E-01  5.212084081E-02  9.480129004E+04  2.579482212E+02  3.370345078E+02  2.828796902E+02  3.182611313E+02  7.163821682E-01 
       111  5.258765486E-02  1.728405975E-01  5.464144749E-02  9.873049854E+04  2.574882565E+02  3.390203838E+02  2.862188950E+02  3.081025734E+02  7.016032711E-01 
       112  5.479076840E-02  1.722430532E-01  5.718902978E-02  1.016092922E+05  2.580524530E+02  3.404440765E+02  2.886270523E+02  3.010389185E+02  6.887810845E-01 
       113  5.694737683E-02  1.716020731E-01  5.976586917E-02  1.047977540E+05  2.574641659E+02  3.418840911E+02  2.910738611E+02  2.927588139E+02  6.788658639E-01 
       114  5.911848447E-02  1.709340834E-01  6.233872565E-02  1.082552619E+05  2.554789500E+02  3.433768803E+02  2.936207107E+02  2.836069397E+02  6.730374436E-01 
       115  6.119351897E-02  1.703313828E-01  6.496775561E-02  1.110329465E+05  2.540916934E+02  3.445744772E+02  2.956720772E+02  2.756743121E+02  6.680767108E-01 
       116  6.319798910E-02  1.696485115E-01  6.765543605E-02  1.131513707E+05  2.534403434E+02  3.454953027E+02  2.972542086E+02  2.705729098E+02  6.641452890E-01 
       117  6.520189851E-02  1.689621155E-01  7.034628384E-02  1.150737388E+05  2.530911608E+02  3.463477058E+02  2.987226019E+02  2.662200117E+02  6.601970159E-01 
       118  6.717992039E-02  1.682884043E-01  7.305807409E-02  1.168783208E+05  2.521261749E+02  3.471483355E+02  3.001051359E+02  2.618107967E+02  6.588881630E-01 
       119  6.910755662E-02  1.675987334E-01  7.579818779E-02  1.183228103E+05  2.503239503E+02  3.478287594E+02  3.012827334E+02  2.571669049E+02  6.612273534E-01 
       120  7.101404689E-02  1.668389198E-01  7.852135391E-02  1.194317390E+05  2.474671261E+02  3.482653260E+02  3.020395784E+02  2.540369370E+02  6.694822768E-01 
