nodenumber     x-coordinate     y-coordinate     z-coordinate         pressure velocity-magnitude      sound-speed      temperature rel-velocity-magnitude relative-velocity-angle 
         1 -2.216901913E-02  1.039879580E-01 -4.300600202E-02  8.754867723E+04  1.539480160E+02  3.330505313E+02  2.762251016E+02  2.357967358E+02  8.594622900E-01 
         2 -2.197401757E-02  1.042260031E-01 -4.002397295E-02  8.746669833E+04  1.544263036E+02  3.330066930E+02  2.761524162E+02  2.363402250E+02  8.589528913E-01 
         3 -2.150271627E-02  1.045375264E-01 -3.708169353E-02  8.736024261E+04  1.550451466E+02  3.329491475E+02  2.760569210E+02  2.370097584E+02  8.582143937E-01 
         4 -2.072290556E-02  1.049359494E-01 -3.421635317E-02  8.724082190E+04  1.557336013E+02  3.328864150E+02  2.759529285E+02  2.377409055E+02  8.573842477E-01 
         5 -1.964621854E-02  1.053757771E-01 -3.145501365E-02  8.711986279E+04  1.564369717E+02  3.328238735E+02  2.758492537E+02  2.385053854E+02  8.566468451E-01 
         6 -1.833909717E-02  1.058829391E-01 -2.880182754E-02  8.699281494E+04  1.571619592E+02  3.327584801E+02  2.757408705E+02  2.393882422E+02  8.562553991E-01 
         7 -1.686396899E-02  1.064019756E-01 -2.624136390E-02  8.684319751E+04  1.579458261E+02  3.326794043E+02  2.756098194E+02  2.403512936E+02  8.558637295E-01 
         8 -1.524276490E-02  1.069101094E-01 -2.376908005E-02  8.662957239E+04  1.589333186E+02  3.325644145E+02  2.754193673E+02  2.414691758E+02  8.549335990E-01 
         9 -1.353040875E-02  1.074492491E-01 -2.136449246E-02  8.638379028E+04  1.601351333E+02  3.324303203E+02  2.751973331E+02  2.427577147E+02  8.534711525E-01 
        10 -1.175719847E-02  1.079385502E-01 -1.899452623E-02  8.617680927E+04  1.614341743E+02  3.323154585E+02  2.750071740E+02  2.439201243E+02  8.510819823E-01 
        11 -9.920451205E-03  1.084473482E-01 -1.667649769E-02  8.605824881E+04  1.626829289E+02  3.322481172E+02  2.748957022E+02  2.448261030E+02  8.480830076E-01 
        12 -8.053093039E-03  1.089314126E-01 -1.437870322E-02  8.620188419E+04  1.632080978E+02  3.323260090E+02  2.750245900E+02  2.446313610E+02  8.450999535E-01 
        13 -6.139911673E-03  1.093816015E-01 -1.211111235E-02  8.666135962E+04  1.626269789E+02  3.325799475E+02  2.754450893E+02  2.432721109E+02  8.441020455E-01 
        14 -4.213714023E-03  1.098625599E-01 -9.853315987E-03  8.747516748E+04  1.607025318E+02  3.330080967E+02  2.761548023E+02  2.406687679E+02  8.462317996E-01 
        15 -2.267252226E-03  1.102821410E-01 -7.616721013E-03  8.850551953E+04  1.565493460E+02  3.335643063E+02  2.770781345E+02  2.371491919E+02  8.576612547E-01 
        16 -3.058463972E-04  1.106716081E-01 -5.380345181E-03  8.936557153E+04  1.499249682E+02  3.339973154E+02  2.777981739E+02  2.343914914E+02  8.855489586E-01 
        17  1.649896870E-03  1.110991589E-01 -3.144821902E-03  8.746004700E+04  1.464196624E+02  3.330026789E+02  2.761478803E+02  2.425524790E+02  9.333564658E-01 
        18  3.605378217E-03  1.114680886E-01 -8.997268064E-04  7.573394922E+04  1.748732345E+02  3.262731261E+02  2.650983644E+02  2.835803442E+02  9.330414999E-01 
        19  5.548952344E-03  1.118349081E-01  1.356589372E-03  6.991511664E+04  2.082132238E+02  3.227477152E+02  2.594030645E+02  3.065681472E+02  8.470766833E-01 
        20  7.472030685E-03  1.121892539E-01  3.633809071E-03  7.271606798E+04  2.126207844E+02  3.244942634E+02  2.622207828E+02  2.990378463E+02  7.918266896E-01 
        21  9.366594022E-03  1.125505666E-01  5.932977735E-03  7.636506989E+04  2.084395301E+02  3.267951090E+02  2.659501944E+02  2.856469500E+02  7.607514006E-01 
        22  1.122147558E-02  1.129077905E-01  8.263617067E-03  7.870257698E+04  2.084818400E+02  3.282221063E+02  2.682758797E+02  2.771573279E+02  7.285416577E-01 
        23  1.303284284E-02  1.132507638E-01  1.062953057E-02  8.027740678E+04  2.112284490E+02  3.291125189E+02  2.697326471E+02  2.716674328E+02  6.946788764E-01 
        24  1.479928419E-02  1.136234762E-01  1.303021626E-02  8.151144196E+04  2.155949186E+02  3.297609941E+02  2.707966463E+02  2.678232784E+02  6.586624447E-01 
        25  1.649617427E-02  1.139938279E-01  1.547769530E-02  8.261697076E+04  2.204858003E+02  3.303063433E+02  2.716929176E+02  2.646342304E+02  6.223811372E-01 
        26  1.811807173E-02  1.143837002E-01  1.797032872E-02  8.339480750E+04  2.260697923E+02  3.306544485E+02  2.722654681E+02  2.628032246E+02  5.875495849E-01 
        27  1.968166241E-02  1.148013513E-01  2.049621310E-02  8.353993176E+04  2.331232677E+02  3.306721675E+02  2.722945375E+02  2.632292774E+02  5.532921883E-01 
        28  2.119101764E-02  1.152299366E-01  2.305322148E-02  8.303507243E+04  2.417649864E+02  3.303869098E+02  2.718249418E+02  2.658706604E+02  5.186875160E-01 
        29  2.266338778E-02  1.156643914E-01  2.563116057E-02  8.240772174E+04  2.505439109E+02  3.300496740E+02  2.712703568E+02  2.688345234E+02  4.846699357E-01 
        30  2.408077791E-02  1.161159634E-01  2.823658064E-02  8.188932159E+04  2.584841971E+02  3.298269489E+02  2.709042213E+02  2.712707386E+02  4.533743365E-01 
        31  2.544088325E-02  1.165921105E-01  3.086849856E-02  8.136132544E+04  2.664554448E+02  3.295666938E+02  2.704769549E+02  2.740768600E+02  4.235677114E-01 
        32  2.674433127E-02  1.170738851E-01  3.352942364E-02  8.079164136E+04  2.744604332E+02  3.292823019E+02  2.700103130E+02  2.771398246E+02  3.947375324E-01 
        33  2.797950643E-02  1.175445507E-01  3.622298897E-02  8.024312653E+04  2.823367960E+02  3.290191066E+02  2.695787235E+02  2.800067800E+02  3.659416892E-01 
        34  2.916313541E-02  1.180056499E-01  3.893937175E-02  7.993716182E+04  2.896328528E+02  3.288554206E+02  2.693107092E+02  2.820257873E+02  3.369870145E-01 
        35  3.031249539E-02  1.184785399E-01  4.167042727E-02  8.008170004E+04  2.954321245E+02  3.289125237E+02  2.694043411E+02  2.824651209E+02  3.098382660E-01 
        36  3.139929926E-02  1.189405785E-01  4.442941843E-02  8.036766861E+04  3.006207781E+02  3.290948730E+02  2.697032042E+02  2.822575368E+02  2.832994148E-01 
        37  3.242013936E-02  1.193808800E-01  4.721660669E-02  8.086877781E+04  3.057046154E+02  3.292962092E+02  2.700334401E+02  2.813298615E+02  2.542003442E-01 
        38  3.340677803E-02  1.198011670E-01  5.002067675E-02  8.204855881E+04  3.085795531E+02  3.299133487E+02  2.710467068E+02  2.781260232E+02  2.276660834E-01 
        39  3.430413654E-02  1.201853153E-01  5.285529857E-02  8.357889624E+04  3.103615751E+02  3.308089514E+02  2.725208073E+02  2.736781549E+02  2.019001609E-01 
        40  3.515433510E-02  1.205874318E-01  5.570324370E-02  8.544864795E+04  3.108696995E+02  3.318682804E+02  2.742693176E+02  2.680735302E+02  1.784184705E-01 
        41  3.592907297E-02  1.209644065E-01  5.857535950E-02  8.759159351E+04  3.099782534E+02  3.330371523E+02  2.762051101E+02  2.614850116E+02  1.587519688E-01 
        42  3.664355424E-02  1.213334730E-01  6.146049591E-02  8.989812476E+04  3.076538024E+02  3.342287092E+02  2.781851788E+02  2.542977910E+02  1.449249212E-01 
        43  3.727845098E-02  1.217084379E-01  6.437276718E-02  9.214722949E+04  3.043072424E+02  3.354058046E+02  2.801477575E+02  2.472846947E+02  1.380559271E-01 
        44  3.781448665E-02  1.220744111E-01  6.730672953E-02  9.405576978E+04  3.006675730E+02  3.364519434E+02  2.818974371E+02  2.412947063E+02  1.375836302E-01 
        45  3.826762164E-02  1.224563704E-01  7.025293559E-02  9.540191119E+04  2.978658469E+02  3.371860585E+02  2.831284726E+02  2.373531035E+02  1.410114988E-01 
        46  3.856443464E-02  1.228195695E-01  7.317567491E-02  9.616761328E+04  2.958051834E+02  3.376771851E+02  2.839538803E+02  2.349740829E+02  1.464534216E-01 
        47  3.882754171E-02  1.231963568E-01  7.616928387E-02  9.657606064E+04  2.935302418E+02  3.383625863E+02  2.851088730E+02  2.325116252E+02  1.532544054E-01 
        48  3.896508106E-02  1.235573809E-01  7.913505459E-02  9.671241016E+04  2.898903961E+02  3.393028641E+02  2.867067719E+02  2.269903755E+02  1.583538428E-01 
        49  3.903512947E-02  1.239238609E-01  8.213137167E-02  9.668204688E+04  2.815804768E+02  3.410933614E+02  2.897649744E+02  2.130630031E+02  1.672695233E-01 
        50  3.900153017E-02  1.243001337E-01  8.510504302E-02  9.652958301E+04  2.667014484E+02  3.441659616E+02  2.950241874E+02  1.864887443E+02  1.743507940E-01 
        51  3.889299026E-02  1.246700891E-01  8.806950082E-02  9.639640839E+04  2.506122622E+02  3.477158031E+02  3.011431491E+02  1.451868048E+02  1.544985523E-01 
        52  3.870303970E-02  1.250405990E-01  9.105247242E-02  9.644425415E+04  2.416366701E+02  3.505298033E+02  3.060093355E+02  1.068256829E+02  7.017874127E-02 
        53  3.847530202E-02  1.253810613E-01  9.402032493E-02  9.679820731E+04  2.393171723E+02  3.521265520E+02  3.087979839E+02  7.371662980E+01 -1.824938218E-01 
        54  3.809583015E-02  1.257752167E-01  9.695318516E-02  9.834590527E+04  2.409493904E+02  3.529531784E+02  3.102364807E+02  4.984012651E+01 -8.736287355E-01 
        55  3.767199372E-02  1.261489404E-01  9.992435767E-02  1.005436091E+05  2.428216815E+02  3.532091627E+02  3.106782675E+02  4.261326492E+01 -1.051691178E+00 
        56  3.723780727E-02  1.265196365E-01  1.028569506E-01  1.034911871E+05  2.383363349E+02  3.529023669E+02  3.101401279E+02  5.818381207E+01 -3.822742818E-01 
        57  3.672955052E-02  1.269046997E-01  1.057947981E-01  1.058345195E+05  2.372164280E+02  3.515786815E+02  3.078248129E+02  9.543289685E+01  3.086708300E-02 
        58  3.615520807E-02  1.273091289E-01  1.087154776E-01  1.071330894E+05  2.443331761E+02  3.490903482E+02  3.034886751E+02  1.385163250E+02  1.509329751E-01 
        59  3.556812424E-02  1.277144368E-01  1.116309472E-01  1.076888393E+05  2.549166293E+02  3.463000240E+02  2.986514137E+02  1.722372442E+02  1.916404825E-01 
        60  3.495651588E-02  1.281329458E-01  1.145394580E-01  1.078778394E+05  2.631530700E+02  3.442756500E+02  2.951625338E+02  1.901829886E+02  1.993441372E-01 
        61  3.433795015E-02  1.285471243E-01  1.174457346E-01  1.078646400E+05  2.677802927E+02  3.432666488E+02  2.934316044E+02  1.969951637E+02  1.952680575E-01 
        62  3.376061330E-02  1.289460490E-01  1.203607660E-01  1.078348292E+05  2.700821660E+02  3.429627008E+02  2.929117410E+02  1.990525293E+02  1.898457762E-01 
        63  3.331803132E-02  1.293309423E-01  1.232882868E-01  1.078145189E+05  2.715874335E+02  3.429259663E+02  2.928489588E+02  1.999662100E+02  1.856831718E-01 
        64  3.310586596E-02  1.296649637E-01  1.262581306E-01  1.077856995E+05  2.727950146E+02  3.429627674E+02  2.929118218E+02  2.007216606E+02  1.828822587E-01 
        65  3.306639982E-02  1.299493947E-01  1.292495641E-01  1.077579590E+05  2.738291718E+02  3.430030313E+02  2.929805890E+02  2.015024016E+02  1.812370491E-01 
        66  3.322486525E-02  1.302097713E-01  1.322380794E-01  1.076559161E+05  2.746536164E+02  3.429998842E+02  2.929752034E+02  2.023117710E+02  1.811529611E-01 
        67  3.356462385E-02  1.304573038E-01  1.352130229E-01  1.074586443E+05  2.756087477E+02  3.429164355E+02  2.928326942E+02  2.034780002E+02  1.818809179E-01 
        68  3.400410102E-02  1.306751199E-01  1.381765647E-01  1.072398857E+05  2.766364143E+02  3.428124747E+02  2.926551929E+02  2.048496552E+02  1.828043538E-01 
        69  3.451963359E-02  1.308741206E-01  1.411278790E-01  1.070023075E+05  2.776915898E+02  3.427122231E+02  2.924839706E+02  2.063883307E+02  1.842092520E-01 
        70  3.508991352E-02  1.310576265E-01  1.440660380E-01  1.067256593E+05  2.787790248E+02  3.425935249E+02  2.922813797E+02  2.080740039E+02  1.859672489E-01 
        71  3.570211579E-02  1.312503676E-01  1.470000000E-01  1.063199824E+05  2.801049156E+02  3.424265785E+02  2.919971809E+02  2.100493832E+02  1.870691292E-01 
        72 -2.843361623E-02  1.708417341E-01 -4.258217492E-02  8.202624927E+04  1.837139759E+02  3.299678659E+02  2.711354084E+02  3.440791140E+02  1.007427156E+00 
        73 -2.838826984E-02  1.709653765E-01 -3.916427879E-02  8.200913586E+04  1.843154273E+02  3.299454360E+02  2.710985856E+02  3.448129506E+02  1.006713999E+00 
        74 -2.835908450E-02  1.711140563E-01 -3.574649433E-02  8.234056635E+04  1.838253213E+02  3.301520004E+02  2.714380920E+02  3.438924718E+02  1.006722891E+00 
        75 -2.838361088E-02  1.712589164E-01 -3.232950605E-02  8.299900195E+04  1.827816143E+02  3.305420284E+02  2.720799122E+02  3.421434383E+02  1.007183641E+00 
        76 -2.841360827E-02  1.714319125E-01 -2.891476756E-02  8.381991370E+04  1.814848070E+02  3.309846625E+02  2.728090549E+02  3.403836265E+02  1.008561257E+00 
        77 -2.833774301E-02  1.716334782E-01 -2.549995819E-02  8.434847281E+04  1.805048369E+02  3.312866218E+02  2.733069395E+02  3.390203012E+02  1.009551976E+00 
        78 -2.791452343E-02  1.719215161E-01 -2.212016887E-02  8.450235791E+04  1.799295216E+02  3.313637352E+02  2.734342299E+02  3.390166836E+02  1.011562392E+00 
        79 -2.700703325E-02  1.722886754E-01 -1.884820631E-02  8.424042749E+04  1.797508030E+02  3.312272415E+02  2.732090712E+02  3.395562897E+02  1.013178043E+00 
        80 -2.544395246E-02  1.727209334E-01 -1.584518523E-02  8.315867877E+04  1.813371856E+02  3.306091189E+02  2.721905580E+02  3.430656471E+02  1.013949330E+00 
        81 -2.351536464E-02  1.732363399E-01 -1.306823492E-02  8.122857388E+04  1.851529183E+02  3.294972076E+02  2.703632070E+02  3.490719636E+02  1.011858308E+00 
        82 -2.134527601E-02  1.737374909E-01 -1.047435973E-02  7.858231432E+04  1.911278987E+02  3.279385022E+02  2.678117758E+02  3.567045484E+02  1.005951252E+00 
        83 -1.897326710E-02  1.742189522E-01 -8.035177519E-03  7.557754178E+04  1.993039521E+02  3.260693891E+02  2.647679688E+02  3.653006386E+02  9.951334377E-01 
        84 -1.652827274E-02  1.746780172E-01 -5.688541800E-03  7.303046588E+04  2.069141085E+02  3.245046763E+02  2.622334490E+02  3.727481918E+02  9.844918875E-01 
        85 -1.397929867E-02  1.751251779E-01 -3.446989688E-03  7.241064954E+04  2.107175446E+02  3.240828986E+02  2.615524273E+02  3.745995030E+02  9.755701125E-01 
        86 -1.139011487E-02  1.755573757E-01 -1.256774906E-03  7.411008044E+04  2.098377240E+02  3.250984635E+02  2.631955380E+02  3.707914710E+02  9.707152434E-01 
        87 -8.734274343E-03  1.759085237E-01  8.667805443E-04  7.939212024E+04  2.024767535E+02  3.284664898E+02  2.686810806E+02  3.569466093E+02  9.682883397E-01 
        88 -6.073383534E-03  1.762548475E-01  2.984781313E-03  8.875294086E+04  1.907160978E+02  3.336672103E+02  2.772567981E+02  3.296936901E+02  9.621103359E-01 
        89 -3.359730182E-03  1.765819110E-01  5.053045394E-03  9.864751495E+04  1.757370865E+02  3.384646978E+02  2.852827011E+02  3.041750202E+02  9.806498610E-01 
        90 -6.741955509E-04  1.768270807E-01  7.130208361E-03  9.825791325E+04  1.647332546E+02  3.383822097E+02  2.851414946E+02  3.072412621E+02  1.022902396E+00 
        91  2.027043660E-03  1.770783858E-01  9.208570588E-03  7.936358241E+04  1.922292961E+02  3.283128137E+02  2.684278775E+02  3.581277042E+02  1.005677203E+00 
        92  4.731686997E-03  1.772422585E-01  1.127155269E-02  7.227054140E+04  2.151572924E+02  3.239399905E+02  2.613243651E+02  3.758896970E+02  9.628977567E-01 
        93  7.454465044E-03  1.773874983E-01  1.334309669E-02  7.295725609E+04  2.102524777E+02  3.243823863E+02  2.620360913E+02  3.742073883E+02  9.754385652E-01 
        94  1.015989937E-02  1.775222933E-01  1.545596277E-02  7.047181436E+04  2.172110319E+02  3.228705710E+02  2.596036631E+02  3.815035198E+02  9.672461460E-01 
        95  1.284858280E-02  1.775661421E-01  1.756817794E-02  6.709869403E+04  2.277617224E+02  3.206892173E+02  2.561080537E+02  3.911153524E+02  9.524131315E-01 
        96  1.551966693E-02  1.776138061E-01  1.970369132E-02  6.423434045E+04  2.373066165E+02  3.186640863E+02  2.528845031E+02  4.006934180E+02  9.416546365E-01 
        97  1.817410325E-02  1.776258069E-01  2.186017323E-02  6.184571375E+04  2.458074393E+02  3.169727101E+02  2.502051344E+02  4.084788637E+02  9.308733875E-01 
        98  2.080993586E-02  1.775631240E-01  2.403936301E-02  6.020154468E+04  2.524293642E+02  3.159546404E+02  2.485972419E+02  4.130515509E+02  9.193081260E-01 
        99  2.341570779E-02  1.774969016E-01  2.625394818E-02  5.984169141E+04  2.570897794E+02  3.157921000E+02  2.483417230E+02  4.141217384E+02  9.061401431E-01 
       100  2.600295182E-02  1.773818036E-01  2.848806157E-02  6.165660938E+04  2.582508926E+02  3.171275892E+02  2.504616137E+02  4.093085585E+02  8.913251497E-01 
       101  2.856627515E-02  1.771883875E-01  3.074502562E-02  6.711183667E+04  2.534782629E+02  3.208855047E+02  2.564746752E+02  3.935494308E+02  8.734126166E-01 
       102  3.110662233E-02  1.769811535E-01  3.302644514E-02  7.525305591E+04  2.459000616E+02  3.261290264E+02  2.649278460E+02  3.703930426E+02  8.509737346E-01 
       103  3.362247542E-02  1.767159818E-01  3.532849163E-02  8.153215967E+04  2.431773968E+02  3.298991785E+02  2.710418701E+02  3.532541599E+02  8.263409454E-01 
       104  3.610895472E-02  1.763647845E-01  3.765120331E-02  8.237087488E+04  2.481717069E+02  3.303058038E+02  2.716958275E+02  3.512373962E+02  8.058911683E-01 
       105  3.856497337E-02  1.759966372E-01  4.000321012E-02  7.985208939E+04  2.569221272E+02  3.287673906E+02  2.691705195E+02  3.593964025E+02  7.916048146E-01 
       106  4.103059304E-02  1.755360248E-01  4.234569910E-02  7.807105667E+04  2.642785260E+02  3.277133510E+02  2.674437937E+02  3.652081352E+02  7.776502386E-01 
       107  4.340106546E-02  1.750377176E-01  4.474435622E-02  7.923765865E+04  2.664759680E+02  3.284996074E+02  2.687314845E+02  3.613282635E+02  7.628750212E-01 
       108  4.575540032E-02  1.745445103E-01  4.717695363E-02  8.362049634E+04  2.642173808E+02  3.309739947E+02  2.728021357E+02  3.491266503E+02  7.480419287E-01 
       109  4.807037784E-02  1.739953488E-01  4.963532790E-02  8.979943994E+04  2.596297884E+02  3.343041210E+02  2.783196430E+02  3.321923256E+02  7.338646911E-01 
       110  5.034733117E-02  1.734133857E-01  5.212084081E-02  9.506754590E+04  2.577255459E+02  3.369850082E+02  2.827944851E+02  3.184551105E+02  7.172865979E-01 
       111  5.258765486E-02  1.728405975E-01  5.464144749E-02  9.838001758E+04  2.586836128E+02  3.386969128E+02  2.856725235E+02  3.101651573E+02  7.005579285E-01 
       112  5.479076840E-02  1.722430532E-01  5.718902978E-02  1.010778943E+05  2.592195387E+02  3.401349287E+02  2.881034451E+02  3.031805296E+02  6.877912898E-01 
       113  5.694737683E-02  1.716020731E-01  5.976586917E-02  1.041590217E+05  2.583855202E+02  3.416515367E+02  2.906777017E+02  2.944910543E+02  6.778938677E-01 
       114  5.911848447E-02  1.709340834E-01  6.233872565E-02  1.074873031E+05  2.573751195E+02  3.430928794E+02  2.931350718E+02  2.855753015E+02  6.686768556E-01 
       115  6.119351897E-02  1.703313828E-01  6.496775561E-02  1.105174509E+05  2.558324432E+02  3.444451017E+02  2.954503975E+02  2.776060128E+02  6.639868096E-01 
       116  6.319798910E-02  1.696485115E-01  6.765543605E-02  1.133012706E+05  2.543213897E+02  3.456827016E+02  2.975768166E+02  2.701993732E+02  6.601792704E-01 
       117  6.520189851E-02  1.689621155E-01  7.034628384E-02  1.155321816E+05  2.532462282E+02  3.466860561E+02  2.993065624E+02  2.640940733E+02  6.569675896E-01 
       118  6.717992039E-02  1.682884043E-01  7.305807409E-02  1.172110034E+05  2.518747387E+02  3.474453058E+02  3.006187286E+02  2.596132059E+02  6.573395859E-01 
       119  6.910755662E-02  1.675987334E-01  7.579818779E-02  1.187983080E+05  2.507955656E+02  3.479955735E+02  3.015716724E+02  2.558417094E+02  6.578565678E-01 
       120  7.101404689E-02  1.668389198E-01  7.852135391E-02  1.198523527E+05  2.479788828E+02  3.485164926E+02  3.024752712E+02  2.536518295E+02  6.669633207E-01 
