nodenumber     x-coordinate     y-coordinate     z-coordinate         pressure velocity-magnitude      sound-speed      temperature rel-velocity-magnitude relative-velocity-angle 
         1 -2.216901913E-02  1.039879580E-01 -4.300600202E-02  8.753445898E+04  1.538101282E+02  3.330610652E+02  2.762426527E+02  2.354722884E+02  8.591411995E-01 
         2 -2.197401757E-02  1.042260031E-01 -4.002397295E-02  8.746199072E+04  1.544440673E+02  3.330039691E+02  2.761478826E+02  2.362931533E+02  8.587192725E-01 
         3 -2.150271627E-02  1.045375264E-01 -3.708169353E-02  8.733558234E+04  1.551760681E+02  3.329307871E+02  2.760265427E+02  2.375379524E+02  8.594583478E-01 
         4 -2.072290556E-02  1.049359494E-01 -3.421635317E-02  8.720140076E+04  1.555458007E+02  3.328888903E+02  2.759571133E+02  2.372706225E+02  8.569897320E-01 
         5 -1.964621854E-02  1.053757771E-01 -3.145501365E-02  8.708308936E+04  1.563627014E+02  3.328173161E+02  2.758384514E+02  2.384099798E+02  8.568824921E-01 
         6 -1.833909717E-02  1.058829391E-01 -2.880182754E-02  8.698129419E+04  1.571654749E+02  3.327516193E+02  2.757296395E+02  2.394754453E+02  8.567842245E-01 
         7 -1.686396899E-02  1.064019756E-01 -2.624136390E-02  8.681021118E+04  1.580759635E+02  3.326510487E+02  2.755630026E+02  2.404376693E+02  8.556296881E-01 
         8 -1.524276490E-02  1.069101094E-01 -2.376908005E-02  8.662787598E+04  1.591030157E+02  3.325412111E+02  2.753809824E+02  2.416488743E+02  8.546014354E-01 
         9 -1.353040875E-02  1.074492491E-01 -2.136449246E-02  8.643753857E+04  1.601811888E+02  3.324416504E+02  2.752160733E+02  2.428126533E+02  8.534554094E-01 
        10 -1.175719847E-02  1.079385502E-01 -1.899452623E-02  8.623898608E+04  1.614193164E+02  3.323321626E+02  2.750347910E+02  2.439731297E+02  8.513196735E-01 
        11 -9.920451205E-03  1.084473482E-01 -1.667649769E-02  8.611681882E+04  1.626072335E+02  3.322673826E+02  2.749276830E+02  2.445819962E+02  8.475809994E-01 
        12 -8.053093039E-03  1.089314126E-01 -1.437870322E-02  8.628008505E+04  1.629441664E+02  3.323877622E+02  2.751270024E+02  2.442641730E+02  8.453866872E-01 
        13 -6.139911673E-03  1.093816015E-01 -1.211111235E-02  8.671696436E+04  1.621955428E+02  3.326407652E+02  2.755458822E+02  2.430183663E+02  8.456758242E-01 
        14 -4.213714023E-03  1.098625599E-01 -9.853315987E-03  8.755190430E+04  1.604643784E+02  3.330486717E+02  2.762222309E+02  2.404817152E+02  8.468535393E-01 
        15 -2.267252226E-03  1.102821410E-01 -7.616721013E-03  8.857613232E+04  1.563416147E+02  3.335817356E+02  2.771071978E+02  2.369861612E+02  8.583959490E-01 
        16 -3.058463972E-04  1.106716081E-01 -5.380345181E-03  8.922604932E+04  1.504994850E+02  3.338917599E+02  2.776227112E+02  2.350865808E+02  8.853644338E-01 
        17  1.649896870E-03  1.110991589E-01 -3.144821902E-03  8.754187903E+04  1.452324145E+02  3.330720925E+02  2.762625582E+02  2.407772288E+02  9.341968494E-01 
        18  3.605378217E-03  1.114680886E-01 -8.997268064E-04  7.566440430E+04  1.764711277E+02  3.260878453E+02  2.647976336E+02  2.873202257E+02  9.405142181E-01 
        19  5.548952344E-03  1.118349081E-01  1.356589372E-03  7.004969946E+04  2.118507683E+02  3.224973624E+02  2.590015132E+02  3.102598696E+02  8.431304921E-01 
        20  7.472030685E-03  1.121892539E-01  3.633809071E-03  7.300206519E+04  2.127487313E+02  3.246114252E+02  2.624124119E+02  2.980200976E+02  7.869978601E-01 
        21  9.366594022E-03  1.125505666E-01  5.932977735E-03  7.661413672E+04  2.068031113E+02  3.271979663E+02  2.666065898E+02  2.817582059E+02  7.544661290E-01 
        22  1.122147558E-02  1.129077905E-01  8.263617067E-03  7.897056776E+04  2.058831097E+02  3.287096310E+02  2.690748132E+02  2.717039968E+02  7.215066596E-01 
        23  1.303284284E-02  1.132507638E-01  1.062953057E-02  8.054039359E+04  2.084843046E+02  3.296025564E+02  2.705386364E+02  2.682606518E+02  6.961068215E-01 
        24  1.479928419E-02  1.136234762E-01  1.303021626E-02  8.174136696E+04  2.138785840E+02  3.301376575E+02  2.714177310E+02  2.658639851E+02  6.611509046E-01 
        25  1.649617427E-02  1.139938279E-01  1.547769530E-02  8.281080121E+04  2.192337613E+02  3.305864983E+02  2.721556764E+02  2.629339733E+02  6.238492071E-01 
        26  1.811807173E-02  1.143837002E-01  1.797032872E-02  8.353752026E+04  2.247139790E+02  3.308779764E+02  2.726348324E+02  2.613960271E+02  5.906258272E-01 
        27  1.968166241E-02  1.148013513E-01  2.049621310E-02  8.360766724E+04  2.316506488E+02  3.308796155E+02  2.726369765E+02  2.622596912E+02  5.584456529E-01 
        28  2.119101764E-02  1.152299366E-01  2.305322148E-02  8.304362127E+04  2.408797561E+02  3.305006618E+02  2.720129745E+02  2.657774747E+02  5.232893927E-01 
        29  2.266338778E-02  1.156643914E-01  2.563116057E-02  8.241380194E+04  2.495017427E+02  3.301664996E+02  2.714630401E+02  2.685071696E+02  4.890380192E-01 
        30  2.408077791E-02  1.161159634E-01  2.823658064E-02  8.187856604E+04  2.572744172E+02  3.299157062E+02  2.710507116E+02  2.703906062E+02  4.566846644E-01 
        31  2.544088325E-02  1.165921105E-01  3.086849856E-02  8.130916040E+04  2.658509309E+02  3.294695358E+02  2.703190536E+02  2.736983838E+02  4.257173813E-01 
        32  2.674433127E-02  1.170738851E-01  3.352942364E-02  8.071299744E+04  2.741354227E+02  3.290800695E+02  2.696805036E+02  2.772235765E+02  3.970656712E-01 
        33  2.797950643E-02  1.175445507E-01  3.622298897E-02  8.017644485E+04  2.813223612E+02  3.289321157E+02  2.694373047E+02  2.794813342E+02  3.692911672E-01 
        34  2.916313541E-02  1.180056499E-01  3.893937175E-02  7.988663451E+04  2.880841626E+02  3.289051771E+02  2.693923583E+02  2.807029073E+02  3.398731785E-01 
        35  3.031249539E-02  1.184785399E-01  4.167042727E-02  8.000761118E+04  2.950144575E+02  3.288371222E+02  2.692809455E+02  2.821278245E+02  3.105888824E-01 
        36  3.139929926E-02  1.189405785E-01  4.442941843E-02  8.026672232E+04  3.007470211E+02  3.290122672E+02  2.695681192E+02  2.822387782E+02  2.825903997E-01 
        37  3.242013936E-02  1.193808800E-01  4.721660669E-02  8.081112206E+04  3.058211764E+02  3.294152440E+02  2.702288129E+02  2.810887102E+02  2.526578636E-01 
        38  3.340677803E-02  1.198011670E-01  5.002067675E-02  8.214110696E+04  3.086933872E+02  3.302266893E+02  2.715628045E+02  2.773362269E+02  2.238815655E-01 
        39  3.430413654E-02  1.201853153E-01  5.285529857E-02  8.391541455E+04  3.098878622E+02  3.313195877E+02  2.733639793E+02  2.720573301E+02  1.979757911E-01 
        40  3.515433510E-02  1.205874318E-01  5.570324370E-02  8.607303076E+04  3.098776989E+02  3.325582809E+02  2.754119701E+02  2.657076054E+02  1.743306024E-01 
        41  3.592907297E-02  1.209644065E-01  5.857535950E-02  8.848789624E+04  3.085731707E+02  3.338555040E+02  2.775647039E+02  2.587963314E+02  1.557201627E-01 
        42  3.664355424E-02  1.213334730E-01  6.146049591E-02  9.095514307E+04  3.061297235E+02  3.350357342E+02  2.795301504E+02  2.519223475E+02  1.439219883E-01 
        43  3.727845098E-02  1.217084379E-01  6.437276718E-02  9.316432935E+04  3.027887497E+02  3.360182676E+02  2.811712894E+02  2.453839302E+02  1.391067579E-01 
        44  3.781448665E-02  1.220744111E-01  6.730672953E-02  9.482510693E+04  2.991133995E+02  3.367928448E+02  2.824685898E+02  2.402521806E+02  1.426619380E-01 
        45  3.826762164E-02  1.224563704E-01  7.025293559E-02  9.587865942E+04  2.957701340E+02  3.373524992E+02  2.834075968E+02  2.365982101E+02  1.507280433E-01 
        46  3.856443464E-02  1.228195695E-01  7.317567491E-02  9.647467188E+04  2.936109695E+02  3.376752167E+02  2.839500580E+02  2.343543396E+02  1.574696079E-01 
        47  3.882754171E-02  1.231963568E-01  7.616928387E-02  9.672046848E+04  2.914434438E+02  3.382066598E+02  2.848464459E+02  2.317068294E+02  1.633318711E-01 
        48  3.896508106E-02  1.235573809E-01  7.913505459E-02  9.667048438E+04  2.863747025E+02  3.393635025E+02  2.868138466E+02  2.235528984E+02  1.689713076E-01 
        49  3.903512947E-02  1.239238609E-01  8.213137167E-02  9.657359680E+04  2.747546031E+02  3.417133272E+02  2.908302391E+02  2.031242152E+02  1.817723201E-01 
        50  3.900153017E-02  1.243001337E-01  8.510504302E-02  9.640293240E+04  2.562019560E+02  3.454673189E+02  2.972625486E+02  1.675396442E+02  1.908810826E-01 
        51  3.889299026E-02  1.246700891E-01  8.806950082E-02  9.638365076E+04  2.398522980E+02  3.493078334E+02  3.038928940E+02  1.200879401E+02  1.554022810E-01 
        52  3.870303970E-02  1.250405990E-01  9.105247242E-02  9.643938013E+04  2.336425891E+02  3.520687513E+02  3.086856933E+02  7.838344741E+01  1.292921905E-02 
        53  3.847530202E-02  1.253810613E-01  9.402032493E-02  9.717648630E+04  2.337965225E+02  3.533778183E+02  3.109792424E+02  4.482872328E+01 -4.371460802E-01 
        54  3.809583015E-02  1.257752167E-01  9.695318516E-02  9.723338184E+04  2.272843437E+02  3.534291153E+02  3.110655327E+02  4.035732555E+01 -4.962534150E-01 
        55  3.767199372E-02  1.261489404E-01  9.992435767E-02  9.786473975E+04  2.386611109E+02  3.525957012E+02  3.095992837E+02  4.791677296E+01 -1.728899542E+00 
        56  3.723780727E-02  1.265196365E-01  1.028569506E-01  1.002928426E+05  2.497521520E+02  3.524337567E+02  3.093144106E+02  5.984237716E+01 -1.353241252E+00 
        57  3.672955052E-02  1.269046997E-01  1.057947981E-01  1.019482990E+05  2.492825716E+02  3.513427796E+02  3.074030418E+02  1.033252344E+02 -2.030672267E-01 
        58  3.615520807E-02  1.273091289E-01  1.087154776E-01  1.028969233E+05  2.401548834E+02  3.489292269E+02  3.031979122E+02  1.511425838E+02  2.285239198E-01 
        59  3.556812424E-02  1.277144368E-01  1.116309472E-01  1.044027142E+05  2.458117363E+02  3.452778826E+02  2.968864710E+02  1.848752620E+02  2.951919416E-01 
        60  3.495651588E-02  1.281329458E-01  1.145394580E-01  1.061011506E+05  2.541799173E+02  3.430759025E+02  2.931084123E+02  1.972296758E+02  2.811735007E-01 
        61  3.433795015E-02  1.285471243E-01  1.174457346E-01  1.074602479E+05  2.569827960E+02  3.427321496E+02  2.925189595E+02  1.949306474E+02  2.565261815E-01 
        62  3.376061330E-02  1.289460490E-01  1.203607660E-01  1.081408297E+05  2.592481768E+02  3.430776670E+02  2.931083939E+02  1.903514183E+02  2.275176460E-01 
        63  3.331803132E-02  1.293309423E-01  1.232882868E-01  1.082331478E+05  2.645997332E+02  3.432696542E+02  2.934363986E+02  1.928593379E+02  2.041507094E-01 
        64  3.310586596E-02  1.296649637E-01  1.262581306E-01  1.080873193E+05  2.692784414E+02  3.433190308E+02  2.935210323E+02  1.984169390E+02  1.965746874E-01 
        65  3.306639982E-02  1.299493947E-01  1.292495641E-01  1.079339325E+05  2.714319523E+02  3.432771195E+02  2.934492989E+02  2.010729073E+02  1.946269712E-01 
        66  3.322486525E-02  1.302097713E-01  1.322380794E-01  1.078152651E+05  2.739361606E+02  3.428719667E+02  2.927572569E+02  2.018218661E+02  1.841200617E-01 
        67  3.356462385E-02  1.304573038E-01  1.352130229E-01  1.076854143E+05  2.738921481E+02  3.428048704E+02  2.926426690E+02  2.029547774E+02  1.906756085E-01 
        68  3.400410102E-02  1.306751199E-01  1.381765647E-01  1.075345421E+05  2.746348088E+02  3.426725082E+02  2.924166384E+02  2.037012341E+02  1.909129438E-01 
        69  3.451963359E-02  1.308741206E-01  1.411278790E-01  1.072821675E+05  2.752854724E+02  3.426327806E+02  2.923487990E+02  2.041172040E+02  1.906977710E-01 
        70  3.508991352E-02  1.310576265E-01  1.440660380E-01  1.069155796E+05  2.760727630E+02  3.425975790E+02  2.922887623E+02  2.052481303E+02  1.922991790E-01 
        71  3.570211579E-02  1.312503676E-01  1.470000000E-01  1.063070684E+05  2.780628128E+02  3.423566360E+02  2.918748207E+02  2.077618999E+02  1.912658736E-01 
        72 -2.843361623E-02  1.708417341E-01 -4.258217492E-02  8.217083838E+04  1.832229481E+02  3.300739212E+02  2.713098164E+02  3.437760134E+02  1.008701943E+00 
        73 -2.838826984E-02  1.709653765E-01 -3.916427879E-02  8.217350415E+04  1.840878322E+02  3.299947445E+02  2.711797276E+02  3.447834516E+02  1.007651553E+00 
        74 -2.835908450E-02  1.711140563E-01 -3.574649433E-02  8.230925763E+04  1.837895792E+02  3.301348560E+02  2.714102876E+02  3.433065927E+02  1.006105167E+00 
        75 -2.838361088E-02  1.712589164E-01 -3.232950605E-02  8.269893799E+04  1.844909878E+02  3.302417774E+02  2.715862875E+02  3.447109814E+02  1.006668583E+00 
        76 -2.841360827E-02  1.714319125E-01 -2.891476756E-02  8.316155798E+04  1.824723792E+02  3.306449451E+02  2.722496266E+02  3.404090395E+02  1.005804319E+00 
        77 -2.833774301E-02  1.716334782E-01 -2.549995819E-02  8.367309909E+04  1.814714444E+02  3.309756994E+02  2.727947316E+02  3.385077027E+02  1.006039621E+00 
        78 -2.791452343E-02  1.719215161E-01 -2.212016887E-02  8.403533496E+04  1.816807375E+02  3.310023098E+02  2.728385897E+02  3.412796326E+02  1.009987496E+00 
        79 -2.700703325E-02  1.722886754E-01 -1.884820631E-02  8.408866431E+04  1.805292192E+02  3.310743170E+02  2.729573574E+02  3.406394129E+02  1.012874745E+00 
        80 -2.544395246E-02  1.727209334E-01 -1.584518523E-02  8.330453839E+04  1.813125710E+02  3.306829770E+02  2.723125982E+02  3.421965687E+02  1.012777298E+00 
        81 -2.351536464E-02  1.732363399E-01 -1.306823492E-02  8.137610149E+04  1.849446594E+02  3.295868053E+02  2.705101314E+02  3.474455048E+02  1.009896867E+00 
        82 -2.134527601E-02  1.737374909E-01 -1.047435973E-02  7.882381512E+04  1.909385040E+02  3.280886136E+02  2.680573487E+02  3.553003958E+02  1.004166942E+00 
        83 -1.897326710E-02  1.742189522E-01 -8.035177519E-03  7.609679150E+04  1.979056496E+02  3.264630742E+02  2.654086112E+02  3.640100347E+02  9.979012166E-01 
        84 -1.652827274E-02  1.746780172E-01 -5.688541800E-03  7.399023456E+04  2.042897649E+02  3.251086688E+02  2.632111390E+02  3.693284798E+02  9.870726150E-01 
        85 -1.397929867E-02  1.751251779E-01 -3.446989688E-03  7.299375281E+04  2.082067771E+02  3.245582223E+02  2.623208947E+02  3.724648285E+02  9.801657479E-01 
        86 -1.139011487E-02  1.755573757E-01 -1.256774906E-03  7.363120581E+04  2.111008565E+02  3.247819123E+02  2.626836286E+02  3.710547447E+02  9.672223348E-01 
        87 -8.734274343E-03  1.759085237E-01  8.667805443E-04  7.783704486E+04  2.047760545E+02  3.275410852E+02  2.671721210E+02  3.590048892E+02  9.653057531E-01 
        88 -6.073383534E-03  1.762548475E-01  2.984781313E-03  8.799320392E+04  1.914326565E+02  3.331844964E+02  2.764585427E+02  3.322362998E+02  9.653072963E-01 
        89 -3.359730182E-03  1.765819110E-01  5.053045394E-03  9.785084399E+04  1.754891338E+02  3.382486169E+02  2.849181474E+02  3.054914937E+02  9.833820076E-01 
        90 -6.741955509E-04  1.768270807E-01  7.130208361E-03  9.695479177E+04  1.694644485E+02  3.375281887E+02  2.837053192E+02  3.119548004E+02  1.012908011E+00 
        91  2.027043660E-03  1.770783858E-01  9.208570588E-03  7.913340807E+04  1.914467582E+02  3.283391032E+02  2.684706907E+02  3.584522707E+02  1.009775150E+00 
        92  4.731686997E-03  1.772422585E-01  1.127155269E-02  7.414829536E+04  2.095377386E+02  3.251613008E+02  2.632980693E+02  3.710841046E+02  9.723867027E-01 
        93  7.454465044E-03  1.773874983E-01  1.334309669E-02  7.399671346E+04  2.088531218E+02  3.249790243E+02  2.630039948E+02  3.718333422E+02  9.764235606E-01 
        94  1.015989937E-02  1.775222933E-01  1.545596277E-02  7.084352981E+04  2.175562644E+02  3.230712419E+02  2.599306910E+02  3.821623437E+02  9.683076875E-01 
        95  1.284858280E-02  1.775661421E-01  1.756817794E-02  6.729958304E+04  2.299073937E+02  3.205297558E+02  2.558580039E+02  3.942106447E+02  9.526095157E-01 
        96  1.551966693E-02  1.776138061E-01  1.970369132E-02  6.432662860E+04  2.390390997E+02  3.184658222E+02  2.525717063E+02  4.023645315E+02  9.400878847E-01 
        97  1.817410325E-02  1.776258069E-01  2.186017323E-02  6.171289819E+04  2.456621683E+02  3.169179158E+02  2.501202097E+02  4.082167630E+02  9.313096590E-01 
        98  2.080993586E-02  1.775631240E-01  2.403936301E-02  5.979604517E+04  2.540621967E+02  3.154582834E+02  2.478242826E+02  4.157306662E+02  9.208073635E-01 
        99  2.341570779E-02  1.774969016E-01  2.625394818E-02  5.929716272E+04  2.591238227E+02  3.151754637E+02  2.473849940E+02  4.174319048E+02  9.080966227E-01 
       100  2.600295182E-02  1.773818036E-01  2.848806157E-02  6.095137939E+04  2.596389923E+02  3.166968918E+02  2.497854958E+02  4.109728241E+02  8.914388716E-01 
       101  2.856627515E-02  1.771883875E-01  3.074502562E-02  6.624745288E+04  2.554994383E+02  3.203512115E+02  2.556300211E+02  3.954721041E+02  8.726014420E-01 
       102  3.110662233E-02  1.769811535E-01  3.302644514E-02  7.480163647E+04  2.451923418E+02  3.260106401E+02  2.647553425E+02  3.688687305E+02  8.529113606E-01 
       103  3.362247542E-02  1.767159818E-01  3.532849163E-02  8.170068970E+04  2.410763268E+02  3.301523151E+02  2.714627786E+02  3.505270891E+02  8.294785339E-01 
       104  3.610895472E-02  1.763647845E-01  3.765120331E-02  8.282060120E+04  2.465830660E+02  3.306449184E+02  2.722558494E+02  3.491959515E+02  8.082262091E-01 
       105  3.856497337E-02  1.759966372E-01  4.000321012E-02  8.017394638E+04  2.558518728E+02  3.290693069E+02  2.696677195E+02  3.565565736E+02  7.906694002E-01 
       106  4.103059304E-02  1.755360248E-01  4.234569910E-02  7.790034058E+04  2.645271561E+02  3.276458384E+02  2.673352267E+02  3.650841383E+02  7.771128242E-01 
       107  4.340106546E-02  1.750377176E-01  4.474435622E-02  7.836674463E+04  2.672990563E+02  3.281927344E+02  2.682299762E+02  3.628686470E+02  7.634277930E-01 
       108  4.575540032E-02  1.745445103E-01  4.717695363E-02  8.188256860E+04  2.669445114E+02  3.302849917E+02  2.716664062E+02  3.528669329E+02  7.458270472E-01 
       109  4.807037784E-02  1.739953488E-01  4.963532790E-02  8.826036670E+04  2.628154001E+02  3.336989231E+02  2.773182764E+02  3.362091780E+02  7.302913442E-01 
       110  5.034733117E-02  1.734133857E-01  5.212084081E-02  9.507678271E+04  2.583876228E+02  3.371556034E+02  2.830862846E+02  3.170282459E+02  7.133390754E-01 
       111  5.258765486E-02  1.728405975E-01  5.464144749E-02  9.963431396E+04  2.572672386E+02  3.394069653E+02  2.868728390E+02  3.053962097E+02  6.985618621E-01 
       112  5.479076840E-02  1.722430532E-01  5.718902978E-02  1.024912969E+05  2.573966894E+02  3.408848267E+02  2.893751478E+02  2.988600702E+02  6.880169548E-01 
       113  5.694737683E-02  1.716020731E-01  5.976586917E-02  1.054063615E+05  2.570293117E+02  3.423569708E+02  2.918804266E+02  2.902174499E+02  6.768905432E-01 
       114  5.911848447E-02  1.709340834E-01  6.233872565E-02  1.088636189E+05  2.563134102E+02  3.438830612E+02  2.944870903E+02  2.813228834E+02  6.669974789E-01 
       115  6.119351897E-02  1.703313828E-01  6.496775561E-02  1.117078391E+05  2.549699883E+02  3.451468420E+02  2.966555367E+02  2.747883077E+02  6.636191513E-01 
       116  6.319798910E-02  1.696485115E-01  6.765543605E-02  1.137612386E+05  2.546397271E+02  3.459180999E+02  2.979823332E+02  2.704567895E+02  6.592372004E-01 
       117  6.520189851E-02  1.689621155E-01  7.034628384E-02  1.157377227E+05  2.541046009E+02  3.466674061E+02  2.992746239E+02  2.653081598E+02  6.551297083E-01 
       118  6.717992039E-02  1.682884043E-01  7.305807409E-02  1.173014360E+05  2.518246584E+02  3.474129915E+02  3.005635614E+02  2.594737387E+02  6.576212179E-01 
       119  6.910755662E-02  1.675987334E-01  7.579818779E-02  1.184753198E+05  2.490828907E+02  3.480355856E+02  3.016410983E+02  2.560971379E+02  6.653211163E-01 
       120  7.101404689E-02  1.668389198E-01  7.852135391E-02  1.194627071E+05  2.466912992E+02  3.484379456E+02  3.023391030E+02  2.545497298E+02  6.733343983E-01 
