nodenumber     x-coordinate     y-coordinate     z-coordinate         pressure velocity-magnitude      sound-speed      temperature rel-velocity-magnitude relative-velocity-angle 
         1 -2.216901913E-02  1.039879580E-01 -4.300600202E-02  8.752989514E+04  1.537995569E+02  3.330611169E+02  2.762427468E+02  2.354860419E+02  8.592501949E-01 
         2 -2.197401757E-02  1.042260031E-01 -4.002397295E-02  8.746577832E+04  1.544617545E+02  3.330023321E+02  2.761451995E+02  2.362675295E+02  8.585323391E-01 
         3 -2.150271627E-02  1.045375264E-01 -3.708169353E-02  8.734153235E+04  1.551787816E+02  3.329334581E+02  2.760309603E+02  2.376027184E+02  8.596713869E-01 
         4 -2.072290556E-02  1.049359494E-01 -3.421635317E-02  8.720750781E+04  1.554773374E+02  3.328978333E+02  2.759719052E+02  2.372496097E+02  8.572884751E-01 
         5 -1.964621854E-02  1.053757771E-01 -3.145501365E-02  8.707802393E+04  1.563619919E+02  3.328143044E+02  2.758334723E+02  2.383672724E+02  8.567315992E-01 
         6 -1.833909717E-02  1.058829391E-01 -2.880182754E-02  8.697494482E+04  1.572719769E+02  3.327393179E+02  2.757092619E+02  2.395585179E+02  8.564551696E-01 
         7 -1.686396899E-02  1.064019756E-01 -2.624136390E-02  8.680982910E+04  1.579989920E+02  3.326589203E+02  2.755760813E+02  2.403543682E+02  8.557674885E-01 
         8 -1.524276490E-02  1.069101094E-01 -2.376908005E-02  8.661657703E+04  1.591375680E+02  3.325326834E+02  2.753668723E+02  2.416608663E+02  8.544863258E-01 
         9 -1.353040875E-02  1.074492491E-01 -2.136449246E-02  8.642943591E+04  1.601025460E+02  3.324461617E+02  2.752235448E+02  2.427592735E+02  8.536695000E-01 
        10 -1.175719847E-02  1.079385502E-01 -1.899452623E-02  8.624112671E+04  1.614442745E+02  3.323304410E+02  2.750319724E+02  2.439722736E+02  8.511977959E-01 
        11 -9.920451205E-03  1.084473482E-01 -1.667649769E-02  8.613932700E+04  1.626053006E+02  3.322774936E+02  2.749444017E+02  2.446768035E+02  8.479325054E-01 
        12 -8.053093039E-03  1.089314126E-01 -1.437870322E-02  8.628124115E+04  1.630811020E+02  3.323703268E+02  2.750981854E+02  2.443438963E+02  8.448826331E-01 
        13 -6.139911673E-03  1.093816015E-01 -1.211111235E-02  8.672935449E+04  1.621493068E+02  3.326505804E+02  2.755621028E+02  2.429688559E+02  8.457952589E-01 
        14 -4.213714023E-03  1.098625599E-01 -9.853315987E-03  8.753945508E+04  1.603913078E+02  3.330527916E+02  2.762291355E+02  2.404764290E+02  8.472379334E-01 
        15 -2.267252226E-03  1.102821410E-01 -7.616721013E-03  8.859097852E+04  1.563643284E+02  3.335841522E+02  2.771112347E+02  2.369754248E+02  8.582026921E-01 
        16 -3.058463972E-04  1.106716081E-01 -5.380345181E-03  8.919439966E+04  1.505305891E+02  3.338776217E+02  2.775991745E+02  2.348864446E+02  8.844967131E-01 
        17  1.649896870E-03  1.110991589E-01 -3.144821902E-03  8.748211121E+04  1.456432333E+02  3.330295382E+02  2.761920357E+02  2.415369413E+02  9.351105439E-01 
        18  3.605378217E-03  1.114680886E-01 -8.997268064E-04  7.564699939E+04  1.776954792E+02  3.259450622E+02  2.645666518E+02  2.885167627E+02  9.388347119E-01 
        19  5.548952344E-03  1.118349081E-01  1.356589372E-03  7.005348431E+04  2.111763747E+02  3.225401554E+02  2.590705378E+02  3.096430049E+02  8.444354557E-01 
        20  7.472030685E-03  1.121892539E-01  3.633809071E-03  7.303824715E+04  2.120533993E+02  3.247214297E+02  2.625899826E+02  2.974929175E+02  7.884636018E-01 
        21  9.366594022E-03  1.125505666E-01  5.932977735E-03  7.660816620E+04  2.064766413E+02  3.272312799E+02  2.666607535E+02  2.812457900E+02  7.541424269E-01 
        22  1.122147558E-02  1.129077905E-01  8.263617067E-03  7.895720864E+04  2.057557392E+02  3.287137457E+02  2.690817120E+02  2.717706052E+02  7.222840323E-01 
        23  1.303284284E-02  1.132507638E-01  1.062953057E-02  8.053608889E+04  2.085275472E+02  3.295979449E+02  2.705311513E+02  2.684435362E+02  6.965919299E-01 
        24  1.479928419E-02  1.136234762E-01  1.303021626E-02  8.174271118E+04  2.138859681E+02  3.301354787E+02  2.714139832E+02  2.658036897E+02  6.609377221E-01 
        25  1.649617427E-02  1.139938279E-01  1.547769530E-02  8.281434875E+04  2.191750998E+02  3.305891840E+02  2.721599543E+02  2.628440301E+02  6.238133842E-01 
        26  1.811807173E-02  1.143837002E-01  1.797032872E-02  8.354547070E+04  2.246588941E+02  3.308881116E+02  2.726514821E+02  2.613735127E+02  5.908100381E-01 
        27  1.968166241E-02  1.148013513E-01  2.049621310E-02  8.361912994E+04  2.316739855E+02  3.308917606E+02  2.726569512E+02  2.622896173E+02  5.583638847E-01 
        28  2.119101764E-02  1.152299366E-01  2.305322148E-02  8.305404023E+04  2.409233892E+02  3.305105922E+02  2.720293620E+02  2.657862094E+02  5.230108246E-01 
        29  2.266338778E-02  1.156643914E-01  2.563116057E-02  8.241903314E+04  2.494423983E+02  3.301786561E+02  2.714830158E+02  2.683709505E+02  4.888783328E-01 
        30  2.408077791E-02  1.161159634E-01  2.823658064E-02  8.188239178E+04  2.572598064E+02  3.299123802E+02  2.710452433E+02  2.703539720E+02  4.566662614E-01 
        31  2.544088325E-02  1.165921105E-01  3.086849856E-02  8.130961462E+04  2.658688500E+02  3.294591513E+02  2.703019812E+02  2.737848859E+02  4.259473141E-01 
        32  2.674433127E-02  1.170738851E-01  3.352942364E-02  8.071139771E+04  2.740445790E+02  3.290915494E+02  2.696992564E+02  2.772069364E+02  3.974422878E-01 
        33  2.797950643E-02  1.175445507E-01  3.622298897E-02  8.017422998E+04  2.811655695E+02  3.289585637E+02  2.694805777E+02  2.793219935E+02  3.694759009E-01 
        34  2.916313541E-02  1.180056499E-01  3.893937175E-02  7.987998952E+04  2.881216521E+02  3.288994780E+02  2.693830065E+02  2.806764710E+02  3.395779414E-01 
        35  3.031249539E-02  1.184785399E-01  4.167042727E-02  7.999587042E+04  2.951459328E+02  3.288164160E+02  2.692470281E+02  2.821595621E+02  3.100496952E-01 
        36  3.139929926E-02  1.189405785E-01  4.442941843E-02  8.026632870E+04  3.007855195E+02  3.290142217E+02  2.695713373E+02  2.821613222E+02  2.820987377E-01 
        37  3.242013936E-02  1.193808800E-01  4.721660669E-02  8.081251251E+04  3.058622650E+02  3.294179003E+02  2.702331343E+02  2.810500289E+02  2.522749058E-01 
        38  3.340677803E-02  1.198011670E-01  5.002067675E-02  8.213365521E+04  3.087332149E+02  3.302239112E+02  2.715583217E+02  2.773468111E+02  2.237053998E-01 
        39  3.430413654E-02  1.201853153E-01  5.285529857E-02  8.390510669E+04  3.099068680E+02  3.313180361E+02  2.733614511E+02  2.720886211E+02  1.980010322E-01 
        40  3.515433510E-02  1.205874318E-01  5.570324370E-02  8.606016064E+04  3.099341259E+02  3.325456314E+02  2.753909359E+02  2.658110466E+02  1.744350428E-01 
        41  3.592907297E-02  1.209644065E-01  5.857535950E-02  8.847226685E+04  3.086694326E+02  3.338296366E+02  2.775216632E+02  2.589946933E+02  1.559887757E-01 
        42  3.664355424E-02  1.213334730E-01  6.146049591E-02  9.093976172E+04  3.061867037E+02  3.350122051E+02  2.794909067E+02  2.520881209E+02  1.442759670E-01 
        43  3.727845098E-02  1.217084379E-01  6.437276718E-02  9.315516528E+04  3.027653294E+02  3.360068579E+02  2.811522198E+02  2.454532185E+02  1.395341516E-01 
        44  3.781448665E-02  1.220744111E-01  6.730672953E-02  9.482306421E+04  2.990355482E+02  3.367914648E+02  2.824662867E+02  2.402357373E+02  1.430648668E-01 
        45  3.826762164E-02  1.224563704E-01  7.025293559E-02  9.587712939E+04  2.957246370E+02  3.373469505E+02  2.833982704E+02  2.365379341E+02  1.507549614E-01 
        46  3.856443464E-02  1.228195695E-01  7.317567491E-02  9.647046875E+04  2.936267776E+02  3.376632080E+02  2.839298706E+02  2.343285522E+02  1.572752669E-01 
        47  3.882754171E-02  1.231963568E-01  7.616928387E-02  9.672243954E+04  2.914124748E+02  3.382110941E+02  2.848539422E+02  2.316743547E+02  1.633881139E-01 
        48  3.896508106E-02  1.235573809E-01  7.913505459E-02  9.668237305E+04  2.864345436E+02  3.393592987E+02  2.868067207E+02  2.236138382E+02  1.688101366E-01 
        49  3.903512947E-02  1.239238609E-01  8.213137167E-02  9.657926013E+04  2.748169589E+02  3.417142978E+02  2.908319640E+02  2.032199102E+02  1.816945118E-01 
        50  3.900153017E-02  1.243001337E-01  8.510504302E-02  9.639874136E+04  2.564445163E+02  3.454454373E+02  2.972244166E+02  1.678248427E+02  1.895176320E-01 
        51  3.889299026E-02  1.246700891E-01  8.806950082E-02  9.636957031E+04  2.397884660E+02  3.493214970E+02  3.039169831E+02  1.202320553E+02  1.572584471E-01 
        52  3.870303970E-02  1.250405990E-01  9.105247242E-02  9.643828101E+04  2.335925527E+02  3.520829792E+02  3.087102566E+02  7.845232284E+01  1.384866639E-02 
        53  3.847530202E-02  1.253810613E-01  9.402032493E-02  9.716060965E+04  2.336725643E+02  3.533548679E+02  3.109390224E+02  4.478568974E+01 -4.303158271E-01 
        54  3.809583015E-02  1.257752167E-01  9.695318516E-02  9.723779590E+04  2.273006783E+02  3.534249344E+02  3.110581856E+02  4.042847395E+01 -8.348634001E-01 
        55  3.767199372E-02  1.261489404E-01  9.992435767E-02  9.789198364E+04  2.391684051E+02  3.525993023E+02  3.096055894E+02  4.787188268E+01 -1.714912780E+00 
        56  3.723780727E-02  1.265196365E-01  1.028569506E-01  1.002847681E+05  2.503702257E+02  3.524148793E+02  3.092814282E+02  6.025866282E+01 -1.335189225E+00 
        57  3.672955052E-02  1.269046997E-01  1.057947981E-01  1.018473451E+05  2.491134560E+02  3.512688437E+02  3.072737484E+02  1.040335720E+02 -1.934242030E-01 
        58  3.615520807E-02  1.273091289E-01  1.087154776E-01  1.028361934E+05  2.396370153E+02  3.488253098E+02  3.030172710E+02  1.512894998E+02  2.333957865E-01 
        59  3.556812424E-02  1.277144368E-01  1.116309472E-01  1.044340161E+05  2.455810444E+02  3.452128413E+02  2.967744248E+02  1.845052289E+02  2.955703158E-01 
        60  3.495651588E-02  1.281329458E-01  1.145394580E-01  1.061858064E+05  2.538513536E+02  3.430973482E+02  2.931450868E+02  1.966652136E+02  2.813187898E-01 
        61  3.433795015E-02  1.285471243E-01  1.174457346E-01  1.075239908E+05  2.567288258E+02  3.427768159E+02  2.925952649E+02  1.944958291E+02  2.565493146E-01 
        62  3.376061330E-02  1.289460490E-01  1.203607660E-01  1.081617656E+05  2.595551667E+02  3.430823660E+02  2.931163914E+02  1.904998916E+02  2.260510365E-01 
        63  3.331803132E-02  1.293309423E-01  1.232882868E-01  1.082118687E+05  2.647700862E+02  3.433063755E+02  2.934991733E+02  1.933571258E+02  2.048128868E-01 
        64  3.310586596E-02  1.296649637E-01  1.262581306E-01  1.080443317E+05  2.693628716E+02  3.433323319E+02  2.935438139E+02  1.987815402E+02  1.973619271E-01 
        65  3.306639982E-02  1.299493947E-01  1.292495641E-01  1.079096930E+05  2.714626327E+02  3.432693222E+02  2.934360409E+02  2.009370282E+02  1.939813899E-01 
        66  3.322486525E-02  1.302097713E-01  1.322380794E-01  1.077931869E+05  2.740125515E+02  3.428404093E+02  2.927033467E+02  2.018339826E+02  1.836936637E-01 
        67  3.356462385E-02  1.304573038E-01  1.352130229E-01  1.076739274E+05  2.738096964E+02  3.427997128E+02  2.926338712E+02  2.030002561E+02  1.913186574E-01 
        68  3.400410102E-02  1.306751199E-01  1.381765647E-01  1.075142411E+05  2.746658108E+02  3.426576152E+02  2.923911674E+02  2.036664314E+02  1.905883451E-01 
        69  3.451963359E-02  1.308741206E-01  1.411278790E-01  1.072665609E+05  2.752393348E+02  3.426402092E+02  2.923614795E+02  2.040611775E+02  1.907854469E-01 
        70  3.508991352E-02  1.310576265E-01  1.440660380E-01  1.069109736E+05  2.760895839E+02  3.425991640E+02  2.922914999E+02  2.052278919E+02  1.921358965E-01 
        71  3.570211579E-02  1.312503676E-01  1.470000000E-01  1.063078320E+05  2.781039848E+02  3.423592834E+02  2.918794022E+02  2.077789631E+02  1.910857130E-01 
        72 -2.843361623E-02  1.708417341E-01 -4.258217492E-02  8.216873364E+04  1.832532582E+02  3.300691595E+02  2.713020315E+02  3.437742043E+02  1.008599441E+00 
        73 -2.838826984E-02  1.709653765E-01 -3.916427879E-02  8.217579523E+04  1.841147752E+02  3.299946647E+02  2.711795585E+02  3.447415905E+02  1.007480948E+00 
        74 -2.835908450E-02  1.711140563E-01 -3.574649433E-02  8.230873090E+04  1.836816429E+02  3.301483529E+02  2.714324436E+02  3.433271227E+02  1.006541262E+00 
        75 -2.838361088E-02  1.712589164E-01 -3.232950605E-02  8.269601514E+04  1.845697641E+02  3.302275486E+02  2.715628176E+02  3.446347065E+02  1.006256152E+00 
        76 -2.841360827E-02  1.714319125E-01 -2.891476756E-02  8.317935107E+04  1.825649095E+02  3.306397710E+02  2.722410789E+02  3.404930391E+02  1.005568691E+00 
        77 -2.833774301E-02  1.716334782E-01 -2.549995819E-02  8.369391461E+04  1.813702821E+02  3.310010056E+02  2.728363143E+02  3.383822471E+02  1.006132351E+00 
        78 -2.791452343E-02  1.719215161E-01 -2.212016887E-02  8.405193799E+04  1.815864372E+02  3.310134754E+02  2.728570881E+02  3.414079914E+02  1.010540724E+00 
        79 -2.700703325E-02  1.722886754E-01 -1.884820631E-02  8.412176416E+04  1.805254455E+02  3.310967131E+02  2.729943199E+02  3.404724216E+02  1.012609772E+00 
        80 -2.544395246E-02  1.727209334E-01 -1.584518523E-02  8.330169885E+04  1.815264678E+02  3.306649950E+02  2.722831509E+02  3.423539138E+02  1.012377506E+00 
        81 -2.351536464E-02  1.732363399E-01 -1.306823492E-02  8.136368817E+04  1.847828301E+02  3.295852525E+02  2.705076475E+02  3.475130242E+02  1.010625576E+00 
        82 -2.134527601E-02  1.737374909E-01 -1.047435973E-02  7.882774765E+04  1.909936937E+02  3.281126121E+02  2.680963283E+02  3.552447164E+02  1.003831674E+00 
        83 -1.897326710E-02  1.742189522E-01 -8.035177519E-03  7.603805194E+04  1.980160419E+02  3.264060600E+02  2.653159440E+02  3.637883329E+02  9.970479836E-01 
        84 -1.652827274E-02  1.746780172E-01 -5.688541800E-03  7.392647925E+04  2.042455752E+02  3.250873260E+02  2.631762946E+02  3.694147058E+02  9.872708954E-01 
        85 -1.397929867E-02  1.751251779E-01 -3.446989688E-03  7.300689844E+04  2.085753288E+02  3.245266218E+02  2.622696028E+02  3.724515314E+02  9.789485615E-01 
        86 -1.139011487E-02  1.755573757E-01 -1.256774906E-03  7.360988965E+04  2.107794914E+02  3.248067513E+02  2.627242594E+02  3.710819550E+02  9.684029073E-01 
        87 -8.734274343E-03  1.759085237E-01  8.667805443E-04  7.786846283E+04  2.050189931E+02  3.275377350E+02  2.671662793E+02  3.592671170E+02  9.649685072E-01 
        88 -6.073383534E-03  1.762548475E-01  2.984781313E-03  8.795168585E+04  1.915231742E+02  3.331562185E+02  2.764114871E+02  3.320891495E+02  9.646805110E-01 
        89 -3.359730182E-03  1.765819110E-01  5.053045394E-03  9.787725769E+04  1.753144002E+02  3.382673247E+02  2.849499098E+02  3.050355315E+02  9.834491326E-01 
        90 -6.741955509E-04  1.768270807E-01  7.130208361E-03  9.696159787E+04  1.696236996E+02  3.374397959E+02  2.835568166E+02  3.115541447E+02  1.012041873E+00 
        91  2.027043660E-03  1.770783858E-01  9.208570588E-03  7.921590330E+04  1.903565501E+02  3.285105928E+02  2.687517660E+02  3.588869094E+02  1.013898719E+00 
        92  4.731686997E-03  1.772422585E-01  1.127155269E-02  7.412729199E+04  2.098021283E+02  3.251193581E+02  2.632304931E+02  3.709395826E+02  9.713298404E-01 
        93  7.454465044E-03  1.773874983E-01  1.334309669E-02  7.392425694E+04  2.091687541E+02  3.249265825E+02  2.629192376E+02  3.723915809E+02  9.765077690E-01 
        94  1.015989937E-02  1.775222933E-01  1.545596277E-02  7.084085744E+04  2.177650784E+02  3.230427197E+02  2.598852980E+02  3.824617468E+02  9.681880228E-01 
        95  1.284858280E-02  1.775661421E-01  1.756817794E-02  6.733078375E+04  2.301679816E+02  3.205111312E+02  2.558280866E+02  3.943527918E+02  9.519805559E-01 
        96  1.551966693E-02  1.776138061E-01  1.970369132E-02  6.434779895E+04  2.387167249E+02  3.185288033E+02  2.526709862E+02  4.018811626E+02  9.400581410E-01 
        97  1.817410325E-02  1.776258069E-01  2.186017323E-02  6.171916711E+04  2.454571943E+02  3.169476638E+02  2.501673698E+02  4.081662941E+02  9.319624277E-01 
        98  2.080993586E-02  1.775631240E-01  2.403936301E-02  5.980250244E+04  2.539817061E+02  3.154748044E+02  2.478498073E+02  4.158678093E+02  9.213406146E-01 
        99  2.341570779E-02  1.774969016E-01  2.625394818E-02  5.928440771E+04  2.590240798E+02  3.152038183E+02  2.474284244E+02  4.171111393E+02  9.076658785E-01 
       100  2.600295182E-02  1.773818036E-01  2.848806157E-02  6.092615039E+04  2.596602907E+02  3.166955357E+02  2.497827654E+02  4.107256756E+02  8.908132762E-01 
       101  2.856627515E-02  1.771883875E-01  3.074502562E-02  6.624204419E+04  2.553353853E+02  3.203474026E+02  2.556248102E+02  3.952072496E+02  8.726500943E-01 
       102  3.110662233E-02  1.769811535E-01  3.302644514E-02  7.482837476E+04  2.450246105E+02  3.260086565E+02  2.647529345E+02  3.687431545E+02  8.532586750E-01 
       103  3.362247542E-02  1.767159818E-01  3.532849163E-02  8.173381128E+04  2.411820679E+02  3.301473904E+02  2.714550471E+02  3.508128586E+02  8.296042960E-01 
       104  3.610895472E-02  1.763647845E-01  3.765120331E-02  8.283925525E+04  2.467250943E+02  3.306518211E+02  2.722671981E+02  3.491901255E+02  8.076849468E-01 
       105  3.856497337E-02  1.759966372E-01  4.000321012E-02  8.018474783E+04  2.559904757E+02  3.290535909E+02  2.696420131E+02  3.568031145E+02  7.906327788E-01 
       106  4.103059304E-02  1.755360248E-01  4.234569910E-02  7.789440917E+04  2.643857319E+02  3.276543310E+02  2.673490618E+02  3.652632616E+02  7.778976814E-01 
       107  4.340106546E-02  1.750377176E-01  4.474435622E-02  7.833848671E+04  2.671456718E+02  3.282120111E+02  2.682612775E+02  3.625724495E+02  7.633538241E-01 
       108  4.575540032E-02  1.745445103E-01  4.717695363E-02  8.186015393E+04  2.670177023E+02  3.302567029E+02  2.716197131E+02  3.529628129E+02  7.457579505E-01 
       109  4.807037784E-02  1.739953488E-01  4.963532790E-02  8.825058228E+04  2.628055429E+02  3.336741877E+02  2.772772141E+02  3.362157001E+02  7.303817384E-01 
       110  5.034733117E-02  1.734133857E-01  5.212084081E-02  9.506564258E+04  2.582460270E+02  3.371524010E+02  2.830809631E+02  3.170026112E+02  7.138096765E-01 
       111  5.258765486E-02  1.728405975E-01  5.464144749E-02  9.961667920E+04  2.571315136E+02  3.394059811E+02  2.868710785E+02  3.055894966E+02  6.993146613E-01 
       112  5.479076840E-02  1.722430532E-01  5.718902978E-02  1.024793286E+05  2.573659430E+02  3.408963737E+02  2.893947277E+02  2.987957029E+02  6.880470235E-01 
       113  5.694737683E-02  1.716020731E-01  5.976586917E-02  1.053896780E+05  2.571888399E+02  3.423546572E+02  2.918762658E+02  2.900934699E+02  6.761273369E-01 
       114  5.911848447E-02  1.709340834E-01  6.233872565E-02  1.088271224E+05  2.563725757E+02  3.438659245E+02  2.944578578E+02  2.814783680E+02  6.669660087E-01 
       115  6.119351897E-02  1.703313828E-01  6.496775561E-02  1.116968643E+05  2.549478893E+02  3.451323671E+02  2.966306386E+02  2.750741849E+02  6.640495416E-01 
       116  6.319798910E-02  1.696485115E-01  6.765543605E-02  1.137549933E+05  2.548142548E+02  3.458873940E+02  2.979295077E+02  2.706461821E+02  6.588179702E-01 
       117  6.520189851E-02  1.689621155E-01  7.034628384E-02  1.157489922E+05  2.541825771E+02  3.466637650E+02  2.992683287E+02  2.650354729E+02  6.545468513E-01 
       118  6.717992039E-02  1.682884043E-01  7.305807409E-02  1.173243706E+05  2.515749998E+02  3.474516783E+02  3.006306791E+02  2.592295952E+02  6.583023760E-01 
       119  6.910755662E-02  1.675987334E-01  7.579818779E-02  1.184930165E+05  2.490279958E+02  3.480497494E+02  3.016655993E+02  2.561327953E+02  6.655960316E-01 
       120  7.101404689E-02  1.668389198E-01  7.852135391E-02  1.194811368E+05  2.468154652E+02  3.484267666E+02  3.023197143E+02  2.546616285E+02  6.729245181E-01 
