nodenumber     x-coordinate     y-coordinate     z-coordinate         pressure velocity-magnitude      sound-speed      temperature rel-velocity-magnitude relative-velocity-angle 
         1 -2.216901913E-02  1.039879580E-01 -4.300600202E-02  8.754775101E+04  1.539526271E+02  3.330496615E+02  2.762236840E+02  2.357960567E+02  8.594343700E-01 
         2 -2.197401757E-02  1.042260031E-01 -4.002397295E-02  8.746419281E+04  1.544324874E+02  3.330050862E+02  2.761497134E+02  2.363451463E+02  8.589372064E-01 
         3 -2.150271627E-02  1.045375264E-01 -3.708169353E-02  8.735783618E+04  1.550464824E+02  3.329482253E+02  2.760553937E+02  2.370076100E+02  8.582001971E-01 
         4 -2.072290556E-02  1.049359494E-01 -3.421635317E-02  8.724192944E+04  1.557176330E+02  3.328881931E+02  2.759558749E+02  2.377274377E+02  8.574253898E-01 
         5 -1.964621854E-02  1.053757771E-01 -3.145501365E-02  8.713020093E+04  1.564019856E+02  3.328299179E+02  2.758592863E+02  2.384755359E+02  8.567358796E-01 
         6 -1.833909717E-02  1.058829391E-01 -2.880182754E-02  8.700841431E+04  1.571160927E+02  3.327667599E+02  2.757546196E+02  2.393645668E+02  8.564323056E-01 
         7 -1.686396899E-02  1.064019756E-01 -2.624136390E-02  8.683845581E+04  1.579515276E+02  3.326769562E+02  2.756058292E+02  2.403569899E+02  8.558512200E-01 
         8 -1.524276490E-02  1.069101094E-01 -2.376908005E-02  8.661907458E+04  1.589617429E+02  3.325591550E+02  2.754106560E+02  2.414851360E+02  8.548284378E-01 
         9 -1.353040875E-02  1.074492491E-01 -2.136449246E-02  8.639085730E+04  1.601518216E+02  3.324328756E+02  2.752015688E+02  2.427767236E+02  8.534563435E-01 
        10 -1.175719847E-02  1.079385502E-01 -1.899452623E-02  8.617453528E+04  1.614612427E+02  3.323130982E+02  2.750033224E+02  2.439720039E+02  8.511377331E-01 
        11 -9.920451205E-03  1.084473482E-01 -1.667649769E-02  8.604944888E+04  1.626671361E+02  3.322460620E+02  2.748923857E+02  2.448019370E+02  8.480805631E-01 
        12 -8.053093039E-03  1.089314126E-01 -1.437870322E-02  8.620921484E+04  1.631214274E+02  3.323362125E+02  2.750415106E+02  2.445203043E+02  8.451956511E-01 
        13 -6.139911673E-03  1.093816015E-01 -1.211111235E-02  8.662775708E+04  1.627165670E+02  3.325618896E+02  2.754151535E+02  2.432849092E+02  8.436560761E-01 
        14 -4.213714023E-03  1.098625599E-01 -9.853315987E-03  8.745356543E+04  1.606760216E+02  3.330009003E+02  2.761428699E+02  2.406524630E+02  8.462896273E-01 
        15 -2.267252226E-03  1.102821410E-01 -7.616721013E-03  8.854541309E+04  1.564230652E+02  3.335917397E+02  2.771237507E+02  2.371258106E+02  8.582563475E-01 
        16 -3.058463972E-04  1.106716081E-01 -5.380345181E-03  8.938587158E+04  1.499510608E+02  3.339956608E+02  2.777953587E+02  2.342032862E+02  8.849141821E-01 
        17  1.649896870E-03  1.110991589E-01 -3.144821902E-03  8.740362317E+04  1.456982449E+02  3.330938516E+02  2.762987559E+02  2.419092798E+02  9.356460283E-01 
        18  3.605378217E-03  1.114680886E-01 -8.997268064E-04  7.588369861E+04  1.734438658E+02  3.265666995E+02  2.655752678E+02  2.836999493E+02  9.421882182E-01 
        19  5.548952344E-03  1.118349081E-01  1.356589372E-03  6.988210370E+04  2.078780491E+02  3.227712545E+02  2.594394515E+02  3.058190889E+02  8.453682195E-01 
        20  7.472030685E-03  1.121892539E-01  3.633809071E-03  7.270480893E+04  2.123126997E+02  3.244867599E+02  2.622086886E+02  2.985126985E+02  7.911526968E-01 
        21  9.366594022E-03  1.125505666E-01  5.932977735E-03  7.639470361E+04  2.090739561E+02  3.267414663E+02  2.658631883E+02  2.864196937E+02  7.605142184E-01 
        22  1.122147558E-02  1.129077905E-01  8.263617067E-03  7.876568748E+04  2.086319935E+02  3.282284652E+02  2.682865031E+02  2.775255050E+02  7.291984810E-01 
        23  1.303284284E-02  1.132507638E-01  1.062953057E-02  8.032580262E+04  2.111347876E+02  3.291643841E+02  2.698176386E+02  2.717248223E+02  6.953390053E-01 
        24  1.479928419E-02  1.136234762E-01  1.303021626E-02  8.154268581E+04  2.155705354E+02  3.298191034E+02  2.708920867E+02  2.678222542E+02  6.587696103E-01 
        25  1.649617427E-02  1.139938279E-01  1.547769530E-02  8.263188788E+04  2.204463601E+02  3.303554721E+02  2.717737377E+02  2.645476253E+02  6.222776216E-01 
        26  1.811807173E-02  1.143837002E-01  1.797032872E-02  8.338990137E+04  2.259904065E+02  3.306809564E+02  2.723091173E+02  2.626736851E+02  5.875183558E-01 
        27  1.968166241E-02  1.148013513E-01  2.049621310E-02  8.352467371E+04  2.330352764E+02  3.306762800E+02  2.723013043E+02  2.631175103E+02  5.533797434E-01 
        28  2.119101764E-02  1.152299366E-01  2.305322148E-02  8.302948834E+04  2.416489421E+02  3.303826692E+02  2.718179802E+02  2.657522632E+02  5.188858944E-01 
        29  2.266338778E-02  1.156643914E-01  2.563116057E-02  8.241770428E+04  2.506081396E+02  3.300172129E+02  2.712170142E+02  2.689378918E+02  4.846939733E-01 
        30  2.408077791E-02  1.161159634E-01  2.823658064E-02  8.189884882E+04  2.585975919E+02  3.297792172E+02  2.708258376E+02  2.713735263E+02  4.531221744E-01 
        31  2.544088325E-02  1.165921105E-01  3.086849856E-02  8.135819263E+04  2.665024219E+02  3.295153847E+02  2.703928056E+02  2.740467262E+02  4.231831869E-01 
        32  2.674433127E-02  1.170738851E-01  3.352942364E-02  8.077517822E+04  2.744572477E+02  3.292318683E+02  2.699276872E+02  2.770269268E+02  3.943211441E-01 
        33  2.797950643E-02  1.175445507E-01  3.622298897E-02  8.022631113E+04  2.823350885E+02  3.289782971E+02  2.695119133E+02  2.798990049E+02  3.655276658E-01 
        34  2.916313541E-02  1.180056499E-01  3.893937175E-02  7.993790150E+04  2.896437836E+02  3.288355368E+02  2.692780921E+02  2.819485174E+02  3.366049970E-01 
        35  3.031249539E-02  1.184785399E-01  4.167042727E-02  8.010610403E+04  2.955126992E+02  3.289048522E+02  2.693916420E+02  2.824666795E+02  3.094005197E-01 
        36  3.139929926E-02  1.189405785E-01  4.442941843E-02  8.040342410E+04  3.007285162E+02  3.290956476E+02  2.697043673E+02  2.823241110E+02  2.829933272E-01 
        37  3.242013936E-02  1.193808800E-01  4.721660669E-02  8.088725986E+04  3.057950768E+02  3.293045391E+02  2.700470320E+02  2.814418441E+02  2.541662852E-01 
        38  3.340677803E-02  1.198011670E-01  5.002067675E-02  8.204051599E+04  3.086613433E+02  3.299134002E+02  2.710468159E+02  2.781952525E+02  2.275106531E-01 
        39  3.430413654E-02  1.201853153E-01  5.285529857E-02  8.355365210E+04  3.104049215E+02  3.308005180E+02  2.725068808E+02  2.737038994E+02  2.017713217E-01 
        40  3.515433510E-02  1.205874318E-01  5.570324370E-02  8.541928711E+04  3.109011650E+02  3.318548145E+02  2.742471066E+02  2.680892315E+02  1.783118527E-01 
        41  3.592907297E-02  1.209644065E-01  5.857535950E-02  8.757272046E+04  3.099652309E+02  3.330314827E+02  2.761957784E+02  2.614708958E+02  1.587721435E-01 
        42  3.664355424E-02  1.213334730E-01  6.146049591E-02  8.989775330E+04  3.076030440E+02  3.342302747E+02  2.781878023E+02  2.542388296E+02  1.449756664E-01 
        43  3.727845098E-02  1.217084379E-01  6.437276718E-02  9.216503931E+04  3.042610159E+02  3.354028168E+02  2.801428108E+02  2.471963768E+02  1.379668256E-01 
        44  3.781448665E-02  1.220744111E-01  6.730672953E-02  9.408479126E+04  3.005967579E+02  3.364528990E+02  2.818991814E+02  2.411736727E+02  1.375146215E-01 
        45  3.826762164E-02  1.224563704E-01  7.025293559E-02  9.543452100E+04  2.977202895E+02  3.372066150E+02  2.831629844E+02  2.372050782E+02  1.412735152E-01 
        46  3.856443464E-02  1.228195695E-01  7.317567491E-02  9.621137891E+04  2.958015594E+02  3.376907196E+02  2.839766541E+02  2.349850159E+02  1.465246566E-01 
        47  3.882754171E-02  1.231963568E-01  7.616928387E-02  9.662017200E+04  2.935257152E+02  3.383831644E+02  2.851434363E+02  2.325000749E+02  1.532331684E-01 
        48  3.896508106E-02  1.235573809E-01  7.913505459E-02  9.677080078E+04  2.897471581E+02  3.393388596E+02  2.867672997E+02  2.268148346E+02  1.584526598E-01 
        49  3.903512947E-02  1.239238609E-01  8.213137167E-02  9.676727515E+04  2.813094943E+02  3.411386473E+02  2.898418593E+02  2.127027625E+02  1.676337463E-01 
        50  3.900153017E-02  1.243001337E-01  8.510504302E-02  9.660701682E+04  2.662375164E+02  3.442281878E+02  2.951315314E+02  1.857947499E+02  1.757742922E-01 
        51  3.889299026E-02  1.246700891E-01  8.806950082E-02  9.642413007E+04  2.497936668E+02  3.478294322E+02  3.013402083E+02  1.439556444E+02  1.583514076E-01 
        52  3.870303970E-02  1.250405990E-01  9.105247242E-02  9.645096338E+04  2.410279374E+02  3.506257091E+02  3.061760187E+02  1.054236010E+02  7.104373944E-02 
        53  3.847530202E-02  1.253810613E-01  9.402032493E-02  9.677947531E+04  2.383839808E+02  3.521815900E+02  3.088939768E+02  7.220043568E+01 -1.698710594E-01 
        54  3.809583015E-02  1.257752167E-01  9.695318516E-02  9.829223535E+04  2.401251411E+02  3.529681664E+02  3.102630577E+02  4.899596930E+01 -8.958691508E-01 
        55  3.767199372E-02  1.261489404E-01  9.992435767E-02  1.003628516E+05  2.437842722E+02  3.531003780E+02  3.104869971E+02  4.235070884E+01 -1.147555612E+00 
        56  3.723780727E-02  1.265196365E-01  1.028569506E-01  1.031677319E+05  2.392037325E+02  3.526590427E+02  3.097130246E+02  5.770517492E+01 -4.571336252E-01 
        57  3.672955052E-02  1.269046997E-01  1.057947981E-01  1.057032214E+05  2.367699440E+02  3.513260403E+02  3.073835187E+02  9.637084484E+01  3.762627940E-02 
        58  3.615520807E-02  1.273091289E-01  1.087154776E-01  1.070650032E+05  2.443737612E+02  3.488304834E+02  3.030381279E+02  1.405581269E+02  1.577096474E-01 
        59  3.556812424E-02  1.277144368E-01  1.116309472E-01  1.074801653E+05  2.554306533E+02  3.460691857E+02  2.982535703E+02  1.733818243E+02  1.919338530E-01 
        60  3.495651588E-02  1.281329458E-01  1.145394580E-01  1.076328608E+05  2.634889913E+02  3.441329317E+02  2.949175520E+02  1.900618563E+02  1.966719795E-01 
        61  3.433795015E-02  1.285471243E-01  1.174457346E-01  1.077569445E+05  2.677876236E+02  3.432280674E+02  2.933655400E+02  1.965249224E+02  1.935271309E-01 
        62  3.376061330E-02  1.289460490E-01  1.203607660E-01  1.078426908E+05  2.698793340E+02  3.429834738E+02  2.929471600E+02  1.986312613E+02  1.895908555E-01 
        63  3.331803132E-02  1.293309423E-01  1.232882868E-01  1.079195750E+05  2.713684477E+02  3.429829938E+02  2.929463663E+02  1.996576333E+02  1.859271773E-01 
        64  3.310586596E-02  1.296649637E-01  1.262581306E-01  1.079074523E+05  2.725358632E+02  3.430272527E+02  2.930220098E+02  2.004359670E+02  1.834538886E-01 
        65  3.306639982E-02  1.299493947E-01  1.292495641E-01  1.078415301E+05  2.734828609E+02  3.430509119E+02  2.930624217E+02  2.012465405E+02  1.824426430E-01 
        66  3.322486525E-02  1.302097713E-01  1.322380794E-01  1.077422857E+05  2.744369512E+02  3.430409023E+02  2.930452926E+02  2.022764215E+02  1.823532964E-01 
        67  3.356462385E-02  1.304573038E-01  1.352130229E-01  1.075773756E+05  2.755138916E+02  3.429714521E+02  2.929266287E+02  2.035721890E+02  1.827993708E-01 
        68  3.400410102E-02  1.306751199E-01  1.381765647E-01  1.073275963E+05  2.765121315E+02  3.428593283E+02  2.927351470E+02  2.048834848E+02  1.836787569E-01 
        69  3.451963359E-02  1.308741206E-01  1.411278790E-01  1.070476360E+05  2.775298581E+02  3.427367172E+02  2.925258431E+02  2.063729074E+02  1.851288665E-01 
        70  3.508991352E-02  1.310576265E-01  1.440660380E-01  1.067339619E+05  2.786869869E+02  3.425988107E+02  2.922904150E+02  2.080684156E+02  1.864992811E-01 
        71  3.570211579E-02  1.312503676E-01  1.470000000E-01  1.063201270E+05  2.801273003E+02  3.424137688E+02  2.919752388E+02  2.101543694E+02  1.873100065E-01 
        72 -2.843361623E-02  1.708417341E-01 -4.258217492E-02  8.203357739E+04  1.836989660E+02  3.299727468E+02  2.711434174E+02  3.440752535E+02  1.007475082E+00 
        73 -2.838826984E-02  1.709653765E-01 -3.916427879E-02  8.202308099E+04  1.843581634E+02  3.299420409E+02  2.710930059E+02  3.448658619E+02  1.006671443E+00 
        74 -2.835908450E-02  1.711140563E-01 -3.574649433E-02  8.234544965E+04  1.838031861E+02  3.301558924E+02  2.714445050E+02  3.438879323E+02  1.006789037E+00 
        75 -2.838361088E-02  1.712589164E-01 -3.232950605E-02  8.300227319E+04  1.827485132E+02  3.305439386E+02  2.720831070E+02  3.420988846E+02  1.007230084E+00 
        76 -2.841360827E-02  1.714319125E-01 -2.891476756E-02  8.378246570E+04  1.816059365E+02  3.309557447E+02  2.727613821E+02  3.405719781E+02  1.008476019E+00 
        77 -2.833774301E-02  1.716334782E-01 -2.549995819E-02  8.431480130E+04  1.805505183E+02  3.312666118E+02  2.732739261E+02  3.390699198E+02  1.009489526E+00 
        78 -2.791452343E-02  1.719215161E-01 -2.212016887E-02  8.448166162E+04  1.799735909E+02  3.313578339E+02  2.734245033E+02  3.389001999E+02  1.011210367E+00 
        79 -2.700703325E-02  1.722886754E-01 -1.884820631E-02  8.424721118E+04  1.797606478E+02  3.312238693E+02  2.732035427E+02  3.397569361E+02  1.013502154E+00 
        80 -2.544395246E-02  1.727209334E-01 -1.584518523E-02  8.317470038E+04  1.812257060E+02  3.306238441E+02  2.722148781E+02  3.427737417E+02  1.013895043E+00 
        81 -2.351536464E-02  1.732363399E-01 -1.306823492E-02  8.125668855E+04  1.850772443E+02  3.294999546E+02  2.703676880E+02  3.489305784E+02  1.011906673E+00 
        82 -2.134527601E-02  1.737374909E-01 -1.047435973E-02  7.861946045E+04  1.913404260E+02  3.279403690E+02  2.678151390E+02  3.569372646E+02  1.005707382E+00 
        83 -1.897326710E-02  1.742189522E-01 -8.035177519E-03  7.555965936E+04  1.991184807E+02  3.260932165E+02  2.648074726E+02  3.653171191E+02  9.958134959E-01 
        84 -1.652827274E-02  1.746780172E-01 -5.688541800E-03  7.305350446E+04  2.072129395E+02  3.244735575E+02  2.621834474E+02  3.729757614E+02  9.841399789E-01 
        85 -1.397929867E-02  1.751251779E-01 -3.446989688E-03  7.238840222E+04  2.107124448E+02  3.240513816E+02  2.615008020E+02  3.749974141E+02  9.764893875E-01 
        86 -1.139011487E-02  1.755573757E-01 -1.256774906E-03  7.405976404E+04  2.091735725E+02  3.251984878E+02  2.633564048E+02  3.707492433E+02  9.725974016E-01 
        87 -8.734274343E-03  1.759085237E-01  8.667805443E-04  7.941420734E+04  2.024061563E+02  3.284508793E+02  2.686581078E+02  3.548787460E+02  9.647130193E-01 
        88 -6.073383534E-03  1.762548475E-01  2.984781313E-03  8.874335388E+04  1.916249055E+02  3.335026257E+02  2.769842528E+02  3.308514423E+02  9.613194894E-01 
        89 -3.359730182E-03  1.765819110E-01  5.053045394E-03  9.847686066E+04  1.758226744E+02  3.384200892E+02  2.852068787E+02  3.040431225E+02  9.798841202E-01 
        90 -6.741955509E-04  1.768270807E-01  7.130208361E-03  9.805392091E+04  1.661468461E+02  3.381257089E+02  2.847113423E+02  3.082065938E+02  1.018110154E+00 
        91  2.027043660E-03  1.770783858E-01  9.208570588E-03  7.917341032E+04  1.919165529E+02  3.282360155E+02  2.683022293E+02  3.593571711E+02  1.008593407E+00 
        92  4.731686997E-03  1.772422585E-01  1.127155269E-02  7.246142842E+04  2.140967336E+02  3.242473478E+02  2.618203311E+02  3.771539673E+02  9.692386303E-01 
        93  7.454465044E-03  1.773874983E-01  1.334309669E-02  7.310649010E+04  2.108597177E+02  3.243966053E+02  2.620592681E+02  3.740807269E+02  9.734790029E-01 
        94  1.015989937E-02  1.775222933E-01  1.545596277E-02  7.046460651E+04  2.180954215E+02  3.227988332E+02  2.594887125E+02  3.820114911E+02  9.654170419E-01 
        95  1.284858280E-02  1.775661421E-01  1.756817794E-02  6.704080643E+04  2.282078207E+02  3.206240153E+02  2.560039313E+02  3.913998628E+02  9.515548158E-01 
        96  1.551966693E-02  1.776138061E-01  1.970369132E-02  6.419257990E+04  2.366499662E+02  3.186989217E+02  2.529396250E+02  3.997864022E+02  9.418985248E-01 
        97  1.817410325E-02  1.776258069E-01  2.186017323E-02  6.188431580E+04  2.453703308E+02  3.169881973E+02  2.502299471E+02  4.080479946E+02  9.314078940E-01 
        98  2.080993586E-02  1.775631240E-01  2.403936301E-02  6.026140857E+04  2.525434394E+02  3.159125137E+02  2.485310783E+02  4.133083420E+02  9.195225332E-01 
        99  2.341570779E-02  1.774969016E-01  2.625394818E-02  5.984053918E+04  2.573668361E+02  3.157364511E+02  2.482542076E+02  4.145321293E+02  9.061869588E-01 
       100  2.600295182E-02  1.773818036E-01  2.848806157E-02  6.160607202E+04  2.586205683E+02  3.170868406E+02  2.503972549E+02  4.096040735E+02  8.908164166E-01 
       101  2.856627515E-02  1.771883875E-01  3.074502562E-02  6.704029907E+04  2.536357155E+02  3.209047108E+02  2.565063620E+02  3.936207619E+02  8.730930761E-01 
       102  3.110662233E-02  1.769811535E-01  3.302644514E-02  7.525045215E+04  2.457617798E+02  3.261896915E+02  2.650269775E+02  3.704844999E+02  8.516781554E-01 
       103  3.362247542E-02  1.767159818E-01  3.532849163E-02  8.161350427E+04  2.432992148E+02  3.299099236E+02  2.710596647E+02  3.535228920E+02  8.264687117E-01 
       104  3.610895472E-02  1.763647845E-01  3.765120331E-02  8.244034473E+04  2.481951885E+02  3.303238883E+02  2.717253642E+02  3.512129440E+02  8.056917517E-01 
       105  3.856497337E-02  1.759966372E-01  4.000321012E-02  7.986918607E+04  2.561319286E+02  3.289147518E+02  2.694112170E+02  3.584253544E+02  7.924110964E-01 
       106  4.103059304E-02  1.755360248E-01  4.234569910E-02  7.804225790E+04  2.639200077E+02  3.278000882E+02  2.675853703E+02  3.645244042E+02  7.775802652E-01 
       107  4.340106546E-02  1.750377176E-01  4.474435622E-02  7.920003851E+04  2.669160813E+02  3.284735232E+02  2.686887032E+02  3.618375310E+02  7.623712316E-01 
       108  4.575540032E-02  1.745445103E-01  4.717695363E-02  8.359651001E+04  2.646895330E+02  3.309553022E+02  2.727714119E+02  3.496543164E+02  7.474025618E-01 
       109  4.807037784E-02  1.739953488E-01  4.963532790E-02  8.981858813E+04  2.597103157E+02  3.343206530E+02  2.783476305E+02  3.323299513E+02  7.338433191E-01 
       110  5.034733117E-02  1.734133857E-01  5.212084081E-02  9.512706445E+04  2.574105206E+02  3.370069103E+02  2.828312054E+02  3.181072845E+02  7.178698257E-01 
       111  5.258765486E-02  1.728405975E-01  5.464144749E-02  9.843144922E+04  2.583729248E+02  3.386797543E+02  2.856434631E+02  3.099579544E+02  7.013575174E-01 
       112  5.479076840E-02  1.722430532E-01  5.718902978E-02  1.010719009E+05  2.592525454E+02  3.400680819E+02  2.879901142E+02  3.032775469E+02  6.878132541E-01 
       113  5.694737683E-02  1.716020731E-01  5.976586917E-02  1.041465819E+05  2.584159567E+02  3.416395493E+02  2.906575654E+02  2.946686282E+02  6.780638192E-01 
       114  5.911848447E-02  1.709340834E-01  6.233872565E-02  1.075850014E+05  2.571092813E+02  3.431916974E+02  2.933038763E+02  2.854649130E+02  6.694950222E-01 
       115  6.119351897E-02  1.703313828E-01  6.496775561E-02  1.106642190E+05  2.557473679E+02  3.445085583E+02  2.955591850E+02  2.773380847E+02  6.639351267E-01 
       116  6.319798910E-02  1.696485115E-01  6.765543605E-02  1.134082921E+05  2.542056146E+02  3.457048421E+02  2.976149573E+02  2.701672640E+02  6.605900275E-01 
       117  6.520189851E-02  1.689621155E-01  7.034628384E-02  1.155212114E+05  2.535112076E+02  3.466257086E+02  2.992023029E+02  2.644301891E+02  6.563179288E-01 
       118  6.717992039E-02  1.682884043E-01  7.305807409E-02  1.172021626E+05  2.520199146E+02  3.474228802E+02  3.005799913E+02  2.597273064E+02  6.568747200E-01 
       119  6.910755662E-02  1.675987334E-01  7.579818779E-02  1.186430006E+05  2.506150320E+02  3.479653542E+02  3.015192626E+02  2.558005331E+02  6.585408202E-01 
       120  7.101404689E-02  1.668389198E-01  7.852135391E-02  1.196842462E+05  2.479228247E+02  3.484204733E+02  3.023086109E+02  2.535496647E+02  6.670916677E-01 
