nodenumber     x-coordinate     y-coordinate     z-coordinate         pressure velocity-magnitude      sound-speed      temperature rel-velocity-magnitude relative-velocity-angle 
         1 -2.216901913E-02  1.039879580E-01 -4.300600202E-02  8.755065186E+04  1.539313908E+02  3.330502644E+02  2.762246560E+02  2.357792479E+02  8.594952201E-01 
         2 -2.197401757E-02  1.042260031E-01 -4.002397295E-02  8.746362036E+04  1.544144240E+02  3.330063777E+02  2.761518565E+02  2.363233466E+02  8.589625598E-01 
         3 -2.150271627E-02  1.045375264E-01 -3.708169353E-02  8.737419238E+04  1.550039473E+02  3.329575534E+02  2.760709050E+02  2.369753600E+02  8.583253133E-01 
         4 -2.072290556E-02  1.049359494E-01 -3.421635317E-02  8.727506714E+04  1.556433802E+02  3.329053493E+02  2.759843397E+02  2.377003713E+02  8.577573951E-01 
         5 -1.964621854E-02  1.053757771E-01 -3.145501365E-02  8.714162451E+04  1.563627300E+02  3.328351107E+02  2.758679094E+02  2.384856687E+02  8.570038546E-01 
         6 -1.833909717E-02  1.058829391E-01 -2.880182754E-02  8.697902832E+04  1.571787930E+02  3.327491608E+02  2.757254691E+02  2.393882627E+02  8.561744802E-01 
         7 -1.686396899E-02  1.064019756E-01 -2.624136390E-02  8.682591895E+04  1.579565897E+02  3.326709061E+02  2.755958509E+02  2.403453064E+02  8.558011092E-01 
         8 -1.524276490E-02  1.069101094E-01 -2.376908005E-02  8.664108447E+04  1.588718970E+02  3.325727038E+02  2.754331217E+02  2.414005833E+02  8.550520465E-01 
         9 -1.353040875E-02  1.074492491E-01 -2.136449246E-02  8.639985071E+04  1.600531621E+02  3.324418745E+02  2.752164569E+02  2.426791449E+02  8.536813529E-01 
        10 -1.175719847E-02  1.079385502E-01 -1.899452623E-02  8.619257251E+04  1.614285885E+02  3.323221390E+02  2.750182328E+02  2.439245832E+02  8.511777148E-01 
        11 -9.920451205E-03  1.084473482E-01 -1.667649769E-02  8.607406799E+04  1.626951083E+02  3.322463955E+02  2.748929465E+02  2.449170429E+02  8.483583310E-01 
        12 -8.053093039E-03  1.089314126E-01 -1.437870322E-02  8.614668665E+04  1.636429674E+02  3.322723470E+02  2.749359030E+02  2.449569856E+02  8.438889906E-01 
        13 -6.139911673E-03  1.093816015E-01 -1.211111235E-02  8.663281885E+04  1.629750051E+02  3.325512228E+02  2.753976107E+02  2.434207225E+02  8.427072763E-01 
        14 -4.213714023E-03  1.098625599E-01 -9.853315987E-03  8.747449414E+04  1.605931520E+02  3.330216560E+02  2.761772861E+02  2.406045361E+02  8.465421945E-01 
        15 -2.267252226E-03  1.102821410E-01 -7.616721013E-03  8.853637451E+04  1.564659348E+02  3.335833836E+02  2.771098728E+02  2.370860252E+02  8.579468839E-01 
        16 -3.058463972E-04  1.106716081E-01 -5.380345181E-03  8.943368896E+04  1.498555799E+02  3.340237656E+02  2.778421764E+02  2.341123962E+02  8.852464929E-01 
        17  1.649896870E-03  1.110991589E-01 -3.144821902E-03  8.741137390E+04  1.452455028E+02  3.330532942E+02  2.762317669E+02  2.418198242E+02  9.371810174E-01 
        18  3.605378217E-03  1.114680886E-01 -8.997268064E-04  7.560441113E+04  1.738385544E+02  3.263502593E+02  2.652237363E+02  2.839543872E+02  9.404881727E-01 
        19  5.548952344E-03  1.118349081E-01  1.356589372E-03  6.980340765E+04  2.103327433E+02  3.225911376E+02  2.591506069E+02  3.085271003E+02  8.439228958E-01 
        20  7.472030685E-03  1.121892539E-01  3.633809071E-03  7.285029565E+04  2.132100524E+02  3.245318692E+02  2.622818875E+02  2.983094038E+02  7.859697093E-01 
        21  9.366594022E-03  1.125505666E-01  5.932977735E-03  7.653707483E+04  2.081155344E+02  3.269243057E+02  2.661611934E+02  2.841693130E+02  7.567763650E-01 
        22  1.122147558E-02  1.129077905E-01  8.263617067E-03  7.892464982E+04  2.085296936E+02  3.282926931E+02  2.683914522E+02  2.779830897E+02  7.316598751E-01 
        23  1.303284284E-02  1.132507638E-01  1.062953057E-02  8.046802276E+04  2.116268069E+02  3.291463223E+02  2.697880220E+02  2.738213030E+02  7.007848675E-01 
        24  1.479928419E-02  1.136234762E-01  1.303021626E-02  8.160234398E+04  2.159119077E+02  3.298322580E+02  2.709136706E+02  2.692884339E+02  6.623896703E-01 
        25  1.649617427E-02  1.139938279E-01  1.547769530E-02  8.262666211E+04  2.206969471E+02  3.304104109E+02  2.718642695E+02  2.652391012E+02  6.234441116E-01 
        26  1.811807173E-02  1.143837002E-01  1.797032872E-02  8.336766797E+04  2.261337554E+02  3.307669163E+02  2.724509478E+02  2.628343987E+02  5.873111933E-01 
        27  1.968166241E-02  1.148013513E-01  2.049621310E-02  8.349790216E+04  2.330786071E+02  3.307608321E+02  2.724406717E+02  2.630786257E+02  5.529920515E-01 
        28  2.119101764E-02  1.152299366E-01  2.305322148E-02  8.298117131E+04  2.415418242E+02  3.304300612E+02  2.718959775E+02  2.654460818E+02  5.184204223E-01 
        29  2.266338778E-02  1.156643914E-01  2.563116057E-02  8.235940833E+04  2.502196965E+02  3.300318236E+02  2.712411164E+02  2.684505984E+02  4.850582699E-01 
        30  2.408077791E-02  1.161159634E-01  2.823658064E-02  8.183701929E+04  2.585232470E+02  3.296909816E+02  2.706810398E+02  2.713652978E+02  4.535496947E-01 
        31  2.544088325E-02  1.165921105E-01  3.086849856E-02  8.130297473E+04  2.667314918E+02  3.293387780E+02  2.701032186E+02  2.743385000E+02  4.230667469E-01 
        32  2.674433127E-02  1.170738851E-01  3.352942364E-02  8.074045862E+04  2.747075007E+02  3.290230951E+02  2.695856514E+02  2.772029319E+02  3.936185967E-01 
        33  2.797950643E-02  1.175445507E-01  3.622298897E-02  8.020919150E+04  2.824030796E+02  3.287857350E+02  2.691966183E+02  2.797620052E+02  3.645961693E-01 
        34  2.916313541E-02  1.180056499E-01  3.893937175E-02  7.991220700E+04  2.894717056E+02  3.286974037E+02  2.690519904E+02  2.815694854E+02  3.360380541E-01 
        35  3.031249539E-02  1.184785399E-01  4.167042727E-02  8.005317621E+04  2.952040148E+02  3.288299890E+02  2.692690809E+02  2.821004307E+02  3.095925149E-01 
        36  3.139929926E-02  1.189405785E-01  4.442941843E-02  8.034003693E+04  3.005671070E+02  3.290304945E+02  2.695974449E+02  2.820449795E+02  2.827364525E-01 
        37  3.242013936E-02  1.193808800E-01  4.721660669E-02  8.082241254E+04  3.056970668E+02  3.292969146E+02  2.700344444E+02  2.812930559E+02  2.541111455E-01 
        38  3.340677803E-02  1.198011670E-01  5.002067675E-02  8.199280667E+04  3.086784214E+02  3.299295871E+02  2.710734001E+02  2.782811394E+02  2.277998236E-01 
        39  3.430413654E-02  1.201853153E-01  5.285529857E-02  8.355351294E+04  3.104748087E+02  3.308174944E+02  2.725348568E+02  2.738510599E+02  2.020007428E-01 
        40  3.515433510E-02  1.205874318E-01  5.570324370E-02  8.548144336E+04  3.109571419E+02  3.318958397E+02  2.743150291E+02  2.681876678E+02  1.784202680E-01 
        41  3.592907297E-02  1.209644065E-01  5.857535950E-02  8.772004370E+04  3.099320598E+02  3.331150551E+02  2.763346529E+02  2.614391627E+02  1.588430004E-01 
        42  3.664355424E-02  1.213334730E-01  6.146049591E-02  9.011905359E+04  3.073847685E+02  3.343542857E+02  2.783944497E+02  2.540514140E+02  1.454695940E-01 
        43  3.727845098E-02  1.217084379E-01  6.437276718E-02  9.240930591E+04  3.038663330E+02  3.355236206E+02  2.803444901E+02  2.468963633E+02  1.390482583E-01 
        44  3.781448665E-02  1.220744111E-01  6.730672953E-02  9.430582080E+04  3.001835384E+02  3.365242538E+02  2.820186405E+02  2.408464007E+02  1.386476317E-01 
        45  3.826762164E-02  1.224563704E-01  7.025293559E-02  9.563861511E+04  2.971802771E+02  3.372719245E+02  2.832726669E+02  2.367149341E+02  1.425259858E-01 
        46  3.856443464E-02  1.228195695E-01  7.317567491E-02  9.639364453E+04  2.954076233E+02  3.377405701E+02  2.840604324E+02  2.347649002E+02  1.480360441E-01 
        47  3.882754171E-02  1.231963568E-01  7.616928387E-02  9.674075891E+04  2.935578406E+02  3.384095587E+02  2.851879469E+02  2.326521258E+02  1.537542685E-01 
        48  3.896508106E-02  1.235573809E-01  7.913505459E-02  9.685894336E+04  2.899316368E+02  3.393683395E+02  2.868155746E+02  2.268160057E+02  1.570754163E-01 
        49  3.903512947E-02  1.239238609E-01  8.213137167E-02  9.691257227E+04  2.810934019E+02  3.411857584E+02  2.899189672E+02  2.121155748E+02  1.656659937E-01 
        50  3.900153017E-02  1.243001337E-01  8.510504302E-02  9.686725150E+04  2.647295128E+02  3.444206907E+02  2.954604886E+02  1.837629251E+02  1.785569237E-01 
        51  3.889299026E-02  1.246700891E-01  8.806950082E-02  9.660623706E+04  2.474331665E+02  3.481544251E+02  3.019039648E+02  1.398896139E+02  1.674819344E-01 
        52  3.870303970E-02  1.250405990E-01  9.105247242E-02  9.648799536E+04  2.385139623E+02  3.510417194E+02  3.068999128E+02  9.935617280E+01  6.980903274E-02 
        53  3.847530202E-02  1.253810613E-01  9.402032493E-02  9.668264697E+04  2.357179883E+02  3.524108802E+02  3.092934076E+02  6.559074388E+01 -1.522051763E-01 
        54  3.809583015E-02  1.257752167E-01  9.695318516E-02  9.783154688E+04  2.354215431E+02  3.530963707E+02  3.104870987E+02  4.397061944E+01 -1.056392327E+00 
        55  3.767199372E-02  1.261489404E-01  9.992435767E-02  9.957582715E+04  2.447116036E+02  3.527625332E+02  3.098930016E+02  4.211219597E+01 -1.412813626E+00 
        56  3.723780727E-02  1.265196365E-01  1.028569506E-01  1.018916673E+05  2.480690609E+02  3.519414053E+02  3.084525578E+02  5.617486373E+01 -8.978850341E-01 
        57  3.672955052E-02  1.269046997E-01  1.057947981E-01  1.045056929E+05  2.375323606E+02  3.506236982E+02  3.061512136E+02  9.487323451E+01 -2.568860704E-02 
        58  3.615520807E-02  1.273091289E-01  1.087154776E-01  1.068154214E+05  2.402549744E+02  3.479840012E+02  3.015664778E+02  1.448633642E+02  2.057146230E-01 
        59  3.556812424E-02  1.277144368E-01  1.116309472E-01  1.077925067E+05  2.527861910E+02  3.454243066E+02  2.971409419E+02  1.764325166E+02  2.199733318E-01 
        60  3.495651588E-02  1.281329458E-01  1.145394580E-01  1.079496592E+05  2.620381274E+02  3.439636836E+02  2.946264768E+02  1.889153347E+02  2.016488705E-01 
        61  3.433795015E-02  1.285471243E-01  1.174457346E-01  1.079034551E+05  2.669439867E+02  3.433005633E+02  2.934893336E+02  1.939721322E+02  1.896679546E-01 
        62  3.376061330E-02  1.289460490E-01  1.203607660E-01  1.078739528E+05  2.692664754E+02  3.430871811E+02  2.931244047E+02  1.967753398E+02  1.867524190E-01 
        63  3.331803132E-02  1.293309423E-01  1.232882868E-01  1.078582758E+05  2.707331847E+02  3.430585014E+02  2.930753820E+02  1.982605878E+02  1.848521589E-01 
        64  3.310586596E-02  1.296649637E-01  1.262581306E-01  1.077766119E+05  2.719817882E+02  3.430477557E+02  2.930569983E+02  1.993955079E+02  1.831402879E-01 
        65  3.306639982E-02  1.299493947E-01  1.292495641E-01  1.076583320E+05  2.730986786E+02  3.430141685E+02  2.929996553E+02  2.004326597E+02  1.818887960E-01 
        66  3.322486525E-02  1.302097713E-01  1.322380794E-01  1.075559393E+05  2.741960267E+02  3.429742535E+02  2.929314544E+02  2.016600569E+02  1.816239571E-01 
        67  3.356462385E-02  1.304573038E-01  1.352130229E-01  1.074610263E+05  2.752687801E+02  3.429371548E+02  2.928681108E+02  2.031516571E+02  1.827949179E-01 
        68  3.400410102E-02  1.306751199E-01  1.381765647E-01  1.072763116E+05  2.764270892E+02  3.428493557E+02  2.927181532E+02  2.047646875E+02  1.837796161E-01 
        69  3.451963359E-02  1.308741206E-01  1.411278790E-01  1.070074321E+05  2.776051013E+02  3.427222428E+02  2.925011170E+02  2.063616908E+02  1.846437587E-01 
        70  3.508991352E-02  1.310576265E-01  1.440660380E-01  1.066790079E+05  2.787475507E+02  3.425779591E+02  2.922548766E+02  2.081258130E+02  1.863437698E-01 
        71  3.570211579E-02  1.312503676E-01  1.470000000E-01  1.063196455E+05  2.801670647E+02  3.423994675E+02  2.919505348E+02  2.102720985E+02  1.874926835E-01 
        72 -2.843361623E-02  1.708417341E-01 -4.258217492E-02  8.204552637E+04  1.836012521E+02  3.300011854E+02  2.711901150E+02  3.441304417E+02  1.007934988E+00 
        73 -2.838826984E-02  1.709653765E-01 -3.916427879E-02  8.203499371E+04  1.843473029E+02  3.299461832E+02  2.710998349E+02  3.449791355E+02  1.006963989E+00 
        74 -2.835908450E-02  1.711140563E-01 -3.574649433E-02  8.237498615E+04  1.838308401E+02  3.301573527E+02  2.714469576E+02  3.437892733E+02  1.006557981E+00 
        75 -2.838361088E-02  1.712589164E-01 -3.232950605E-02  8.299832861E+04  1.827842975E+02  3.305348091E+02  2.720680885E+02  3.420966797E+02  1.007162325E+00 
        76 -2.841360827E-02  1.714319125E-01 -2.891476756E-02  8.366831677E+04  1.818360577E+02  3.309050550E+02  2.726779547E+02  3.409005952E+02  1.008299135E+00 
        77 -2.833774301E-02  1.716334782E-01 -2.549995819E-02  8.417371054E+04  1.808468547E+02  3.311777465E+02  2.731276009E+02  3.394547822E+02  1.009253202E+00 
        78 -2.791452343E-02  1.719215161E-01 -2.212016887E-02  8.445943018E+04  1.801163549E+02  3.313322029E+02  2.733823481E+02  3.389366932E+02  1.010922283E+00 
        79 -2.700703325E-02  1.722886754E-01 -1.884820631E-02  8.429528467E+04  1.795393839E+02  3.312574415E+02  2.732591352E+02  3.396080027E+02  1.014109880E+00 
        80 -2.544395246E-02  1.727209334E-01 -1.584518523E-02  8.321601233E+04  1.810228765E+02  3.306433661E+02  2.722471700E+02  3.427769179E+02  1.014655134E+00 
        81 -2.351536464E-02  1.732363399E-01 -1.306823492E-02  8.133340749E+04  1.845620192E+02  3.295748784E+02  2.704906579E+02  3.482748938E+02  1.012565434E+00 
        82 -2.134527601E-02  1.737374909E-01 -1.047435973E-02  7.867501480E+04  1.908946466E+02  3.279878973E+02  2.678927794E+02  3.561198457E+02  1.005800547E+00 
        83 -1.897326710E-02  1.742189522E-01 -8.035177519E-03  7.541431696E+04  1.998145589E+02  3.259953521E+02  2.646485052E+02  3.657259485E+02  9.944862709E-01 
        84 -1.652827274E-02  1.746780172E-01 -5.688541800E-03  7.292766754E+04  2.074585297E+02  3.244548459E+02  2.621522596E+02  3.732305408E+02  9.838166572E-01 
        85 -1.397929867E-02  1.751251779E-01 -3.446989688E-03  7.244216455E+04  2.105312772E+02  3.241653223E+02  2.616840067E+02  3.745331321E+02  9.757424518E-01 
        86 -1.139011487E-02  1.755573757E-01 -1.256774906E-03  7.405352478E+04  2.092627997E+02  3.252097297E+02  2.633741040E+02  3.700334668E+02  9.705057517E-01 
        87 -8.734274343E-03  1.759085237E-01  8.667805443E-04  7.934784033E+04  2.034852667E+02  3.282922592E+02  2.683939271E+02  3.558813565E+02  9.627264328E-01 
        88 -6.073383534E-03  1.762548475E-01  2.984781313E-03  8.862838434E+04  1.901606011E+02  3.335705199E+02  2.770941908E+02  3.322642314E+02  9.678740609E-01 
        89 -3.359730182E-03  1.765819110E-01  5.053045394E-03  9.867577570E+04  1.747603321E+02  3.385918467E+02  2.854977249E+02  3.025959918E+02  9.815108203E-01 
        90 -6.741955509E-04  1.768270807E-01  7.130208361E-03  9.743393509E+04  1.663894664E+02  3.379323348E+02  2.843854407E+02  3.079553488E+02  1.017550865E+00 
        91  2.027043660E-03  1.770783858E-01  9.208570588E-03  7.916383825E+04  1.917568995E+02  3.281886974E+02  2.682277392E+02  3.588000447E+02  1.008422728E+00 
        92  4.731686997E-03  1.772422585E-01  1.127155269E-02  7.274776024E+04  2.118684722E+02  3.243551579E+02  2.619942610E+02  3.733240626E+02  9.687814871E-01 
        93  7.454465044E-03  1.773874983E-01  1.334309669E-02  7.328506216E+04  2.099766106E+02  3.246662571E+02  2.624945487E+02  3.747669941E+02  9.776775914E-01 
        94  1.015989937E-02  1.775222933E-01  1.545596277E-02  7.072066785E+04  2.180957890E+02  3.229865216E+02  2.597898934E+02  3.834176895E+02  9.682575238E-01 
        95  1.284858280E-02  1.775661421E-01  1.756817794E-02  6.719964841E+04  2.276943048E+02  3.207924067E+02  2.562738745E+02  3.915095682E+02  9.537146133E-01 
        96  1.551966693E-02  1.776138061E-01  1.970369132E-02  6.421803851E+04  2.368980525E+02  3.187223454E+02  2.529770875E+02  4.000674138E+02  9.418565249E-01 
        97  1.817410325E-02  1.776258069E-01  2.186017323E-02  6.183120496E+04  2.454952857E+02  3.169834471E+02  2.502220354E+02  4.076265359E+02  9.301107181E-01 
        98  2.080993586E-02  1.775631240E-01  2.403936301E-02  6.016927600E+04  2.529111514E+02  3.158069887E+02  2.483654075E+02  4.131900740E+02  9.180740248E-01 
        99  2.341570779E-02  1.774969016E-01  2.625394818E-02  5.975621411E+04  2.575926218E+02  3.155972538E+02  2.480360079E+02  4.143946915E+02  9.052423369E-01 
       100  2.600295182E-02  1.773818036E-01  2.848806157E-02  6.149646729E+04  2.590727491E+02  3.168753405E+02  2.500630407E+02  4.100018969E+02  8.902175725E-01 
       101  2.856627515E-02  1.771883875E-01  3.074502562E-02  6.687140381E+04  2.546733780E+02  3.206521368E+02  2.561061163E+02  3.950118265E+02  8.726338260E-01 
       102  3.110662233E-02  1.769811535E-01  3.302644514E-02  7.504962256E+04  2.464785824E+02  3.261209288E+02  2.649189196E+02  3.713348207E+02  8.511140775E-01 
       103  3.362247542E-02  1.767159818E-01  3.532849163E-02  8.157735071E+04  2.433512173E+02  3.300424376E+02  2.712788191E+02  3.535033979E+02  8.264769092E-01 
       104  3.610895472E-02  1.763647845E-01  3.765120331E-02  8.281398889E+04  2.478027091E+02  3.306138649E+02  2.722030110E+02  3.505237083E+02  8.060106691E-01 
       105  3.856497337E-02  1.759966372E-01  4.000321012E-02  8.032288007E+04  2.565047883E+02  3.291346334E+02  2.697729182E+02  3.586728003E+02  7.917623166E-01 
       106  4.103059304E-02  1.755360248E-01  4.234569910E-02  7.825896729E+04  2.640518274E+02  3.279703310E+02  2.678636384E+02  3.641078055E+02  7.762951992E-01 
       107  4.340106546E-02  1.750377176E-01  4.474435622E-02  7.915496297E+04  2.664695954E+02  3.286759635E+02  2.690201084E+02  3.610508348E+02  7.623586620E-01 
       108  4.575540032E-02  1.745445103E-01  4.717695363E-02  8.327414404E+04  2.649236984E+02  3.310555577E+02  2.729355047E+02  3.498627315E+02  7.470044103E-01 
       109  4.807037784E-02  1.739953488E-01  4.963532790E-02  8.938169556E+04  2.609315310E+02  3.342305231E+02  2.781963825E+02  3.333542881E+02  7.313629650E-01 
       110  5.034733117E-02  1.734133857E-01  5.212084081E-02  9.490963770E+04  2.581435623E+02  3.369261856E+02  2.826963139E+02  3.185806961E+02  7.161332816E-01 
       111  5.258765486E-02  1.728405975E-01  5.464144749E-02  9.848690723E+04  2.579494476E+02  3.386643562E+02  2.856175766E+02  3.087547035E+02  7.009889819E-01 
       112  5.479076840E-02  1.722430532E-01  5.718902978E-02  1.012747603E+05  2.582415524E+02  3.400596628E+02  2.879758596E+02  3.016395197E+02  6.890291404E-01 
       113  5.694737683E-02  1.716020731E-01  5.976586917E-02  1.044666415E+05  2.577853389E+02  3.416043220E+02  2.905976651E+02  2.940643806E+02  6.795576052E-01 
       114  5.911848447E-02  1.709340834E-01  6.233872565E-02  1.079886323E+05  2.566278088E+02  3.432889969E+02  2.934706820E+02  2.856648678E+02  6.716123700E-01 
       115  6.119351897E-02  1.703313828E-01  6.496775561E-02  1.109849983E+05  2.556259151E+02  3.446822109E+02  2.958571467E+02  2.774763865E+02  6.645095497E-01 
       116  6.319798910E-02  1.696485115E-01  6.765543605E-02  1.134012128E+05  2.544397326E+02  3.457954283E+02  2.977708807E+02  2.701901560E+02  6.596404277E-01 
       117  6.520189851E-02  1.689621155E-01  7.034628384E-02  1.153883833E+05  2.536585932E+02  3.465421991E+02  2.990582247E+02  2.646525650E+02  6.560423113E-01 
       118  6.717992039E-02  1.682884043E-01  7.305807409E-02  1.172026079E+05  2.515749607E+02  3.473521080E+02  3.004575510E+02  2.599488811E+02  6.589869820E-01 
       119  6.910755662E-02  1.675987334E-01  7.579818779E-02  1.187388043E+05  2.507693462E+02  3.478730760E+02  3.013594339E+02  2.567276983E+02  6.589477831E-01 
       120  7.101404689E-02  1.668389198E-01  7.852135391E-02  1.198032259E+05  2.476722211E+02  3.484651763E+02  3.023862050E+02  2.540465701E+02  6.686353311E-01 
