nodenumber     x-coordinate     y-coordinate     z-coordinate         pressure velocity-magnitude      sound-speed      temperature rel-velocity-magnitude relative-velocity-angle 
         1 -2.216901913E-02  1.039879580E-01 -4.300600202E-02  8.754771971E+04  1.539552937E+02  3.330493761E+02  2.762231726E+02  2.357964909E+02  8.594217467E-01 
         2 -2.197401757E-02  1.042260031E-01 -4.002397295E-02  8.746420413E+04  1.544345146E+02  3.330050952E+02  2.761497327E+02  2.363431922E+02  8.589197937E-01 
         3 -2.150271627E-02  1.045375264E-01 -3.708169353E-02  8.735873828E+04  1.550432239E+02  3.329493222E+02  2.760572376E+02  2.370019741E+02  8.581996891E-01 
         4 -2.072290556E-02  1.049359494E-01 -3.421635317E-02  8.724621057E+04  1.557001975E+02  3.328915639E+02  2.759614444E+02  2.377108109E+02  8.574637836E-01 
         5 -1.964621854E-02  1.053757771E-01 -3.145501365E-02  8.713871436E+04  1.563742313E+02  3.328346920E+02  2.758672018E+02  2.384575882E+02  8.568279445E-01 
         6 -1.833909717E-02  1.058829391E-01 -2.880182754E-02  8.701197778E+04  1.571024776E+02  3.327683172E+02  2.757571769E+02  2.393632913E+02  8.565049805E-01 
         7 -1.686396899E-02  1.064019756E-01 -2.624136390E-02  8.682933154E+04  1.579691052E+02  3.326719580E+02  2.755975428E+02  2.403710818E+02  8.558026087E-01 
         8 -1.524276490E-02  1.069101094E-01 -2.376908005E-02  8.661522083E+04  1.589734626E+02  3.325565014E+02  2.754062614E+02  2.414910173E+02  8.547852878E-01 
         9 -1.353040875E-02  1.074492491E-01 -2.136449246E-02  8.639074548E+04  1.601577568E+02  3.324317150E+02  2.751996179E+02  2.427945325E+02  8.534978349E-01 
        10 -1.175719847E-02  1.079385502E-01 -1.899452623E-02  8.616530878E+04  1.614648623E+02  3.323087182E+02  2.749960446E+02  2.439738543E+02  8.511294061E-01 
        11 -9.920451205E-03  1.084473482E-01 -1.667649769E-02  8.605531927E+04  1.626203673E+02  3.322534776E+02  2.749046416E+02  2.447213621E+02  8.480465750E-01 
        12 -8.053093039E-03  1.089314126E-01 -1.437870322E-02  8.621059512E+04  1.630982275E+02  3.323394336E+02  2.750468885E+02  2.444915321E+02  8.452390116E-01 
        13 -6.139911673E-03  1.093816015E-01 -1.211111235E-02  8.660984497E+04  1.627735019E+02  3.325537014E+02  2.754016485E+02  2.433313065E+02  8.435047884E-01 
        14 -4.213714023E-03  1.098625599E-01 -9.853315987E-03  8.747512988E+04  1.606160908E+02  3.330171528E+02  2.761697960E+02  2.406252680E+02  8.464968130E-01 
        15 -2.267252226E-03  1.102821410E-01 -7.616721013E-03  8.855513086E+04  1.564726696E+02  3.335845413E+02  2.771118383E+02  2.371460304E+02  8.580841944E-01 
        16 -3.058463972E-04  1.106716081E-01 -5.380345181E-03  8.934840991E+04  1.500617933E+02  3.339746113E+02  2.777603188E+02  2.341614552E+02  8.842481207E-01 
        17  1.649896870E-03  1.110991589E-01 -3.144821902E-03  8.743461047E+04  1.458714730E+02  3.330622845E+02  2.762461047E+02  2.420056682E+02  9.343603551E-01 
        18  3.605378217E-03  1.114680886E-01 -8.997268064E-04  7.575320032E+04  1.734967499E+02  3.264460707E+02  2.653797874E+02  2.838533125E+02  9.423559345E-01 
        19  5.548952344E-03  1.118349081E-01  1.356589372E-03  6.979112421E+04  2.072102550E+02  3.228221262E+02  2.595209477E+02  3.045020449E+02  8.433212568E-01 
        20  7.472030685E-03  1.121892539E-01  3.633809071E-03  7.271681174E+04  2.118710943E+02  3.245394308E+02  2.622932528E+02  2.979134207E+02  7.910219971E-01 
        21  9.366594022E-03  1.125505666E-01  5.932977735E-03  7.642515222E+04  2.090936244E+02  3.267438679E+02  2.658669741E+02  2.865686793E+02  7.609657710E-01 
        22  1.122147558E-02  1.129077905E-01  8.263617067E-03  7.877751891E+04  2.088636877E+02  3.281956460E+02  2.682329195E+02  2.779684470E+02  7.297017566E-01 
        23  1.303284284E-02  1.132507638E-01  1.062953057E-02  8.033341934E+04  2.111880122E+02  3.291606167E+02  2.698116310E+02  2.719169796E+02  6.957665976E-01 
        24  1.479928419E-02  1.136234762E-01  1.303021626E-02  8.156095604E+04  2.155449228E+02  3.298471102E+02  2.709381614E+02  2.678530311E+02  6.589938344E-01 
        25  1.649617427E-02  1.139938279E-01  1.547769530E-02  8.265415021E+04  2.204213448E+02  3.303933794E+02  2.718361161E+02  2.645396867E+02  6.223680526E-01 
        26  1.811807173E-02  1.143837002E-01  1.797032872E-02  8.340788757E+04  2.259471853E+02  3.307134790E+02  2.723626580E+02  2.626367087E+02  5.876096180E-01 
        27  1.968166241E-02  1.148013513E-01  2.049621310E-02  8.353196588E+04  2.329949074E+02  3.306930220E+02  2.723288078E+02  2.630722241E+02  5.534290066E-01 
        28  2.119101764E-02  1.152299366E-01  2.305322148E-02  8.302610609E+04  2.415709700E+02  3.303903358E+02  2.718305461E+02  2.656282632E+02  5.188430233E-01 
        29  2.266338778E-02  1.156643914E-01  2.563116057E-02  8.241347498E+04  2.506185257E+02  3.300024414E+02  2.711927899E+02  2.689301145E+02  4.846020506E-01 
        30  2.408077791E-02  1.161159634E-01  2.823658064E-02  8.189913690E+04  2.586860716E+02  3.297485015E+02  2.707754261E+02  2.714517436E+02  4.529297915E-01 
        31  2.544088325E-02  1.165921105E-01  3.086849856E-02  8.136215405E+04  2.665670061E+02  3.294853964E+02  2.703435917E+02  2.740789690E+02  4.229487856E-01 
        32  2.674433127E-02  1.170738851E-01  3.352942364E-02  8.077762793E+04  2.744726510E+02  3.292057538E+02  2.698848832E+02  2.769906368E+02  3.941038069E-01 
        33  2.797950643E-02  1.175445507E-01  3.622298897E-02  8.022281854E+04  2.823187145E+02  3.289538074E+02  2.694717873E+02  2.798358221E+02  3.653843449E-01 
        34  2.916313541E-02  1.180056499E-01  3.893937175E-02  7.993133272E+04  2.895884532E+02  3.288190630E+02  2.692510982E+02  2.818632757E+02  3.365704236E-01 
        35  3.031249539E-02  1.184785399E-01  4.167042727E-02  8.010707584E+04  2.954655306E+02  3.288974884E+02  2.693795452E+02  2.823925295E+02  3.093530081E-01 
        36  3.139929926E-02  1.189405785E-01  4.442941843E-02  8.041989709E+04  3.007453643E+02  3.290945324E+02  2.697024614E+02  2.823129219E+02  2.828642143E-01 
        37  3.242013936E-02  1.193808800E-01  4.721660669E-02  8.091058171E+04  3.058459105E+02  3.293184300E+02  2.700697424E+02  2.815101387E+02  2.541689114E-01 
        38  3.340677803E-02  1.198011670E-01  5.002067675E-02  8.205821164E+04  3.087411216E+02  3.299260519E+02  2.710675249E+02  2.782850486E+02  2.274430954E-01 
        39  3.430413654E-02  1.201853153E-01  5.285529857E-02  8.356014722E+04  3.104578848E+02  3.308066511E+02  2.725169449E+02  2.737614241E+02  2.017174112E-01 
        40  3.515433510E-02  1.205874318E-01  5.570324370E-02  8.541843164E+04  3.109246235E+02  3.318559341E+02  2.742489376E+02  2.681128750E+02  1.782818232E-01 
        41  3.592907297E-02  1.209644065E-01  5.857535950E-02  8.757511401E+04  3.099474206E+02  3.330352097E+02  2.762019892E+02  2.614596190E+02  1.588305691E-01 
        42  3.664355424E-02  1.213334730E-01  6.146049591E-02  8.991035376E+04  3.075465798E+02  3.342393909E+02  2.782030129E+02  2.541940036E+02  1.451187257E-01 
        43  3.727845098E-02  1.217084379E-01  6.437276718E-02  9.218489673E+04  3.042012444E+02  3.354086618E+02  2.801525564E+02  2.471325331E+02  1.380554209E-01 
        44  3.781448665E-02  1.220744111E-01  6.730672953E-02  9.410156079E+04  3.005482512E+02  3.364511042E+02  2.818961172E+02  2.411030273E+02  1.375151984E-01 
        45  3.826762164E-02  1.224563704E-01  7.025293559E-02  9.544643927E+04  2.976222308E+02  3.372117047E+02  2.831714606E+02  2.371133404E+02  1.414835224E-01 
        46  3.856443464E-02  1.228195695E-01  7.317567491E-02  9.623163281E+04  2.957492981E+02  3.376974792E+02  2.839880371E+02  2.349650497E+02  1.467596591E-01 
        47  3.882754171E-02  1.231963568E-01  7.616928387E-02  9.663596057E+04  2.935315361E+02  3.383868915E+02  2.851496944E+02  2.325094309E+02  1.532417358E-01 
        48  3.896508106E-02  1.235573809E-01  7.913505459E-02  9.679236719E+04  2.896944885E+02  3.393507538E+02  2.867870865E+02  2.267419395E+02  1.584089510E-01 
        49  3.903512947E-02  1.239238609E-01  8.213137167E-02  9.680614880E+04  2.811447587E+02  3.411629460E+02  2.898828385E+02  2.124838586E+02  1.677518527E-01 
        50  3.900153017E-02  1.243001337E-01  8.510504302E-02  9.664796106E+04  2.659898306E+02  3.442586361E+02  2.951840627E+02  1.853976278E+02  1.764483335E-01 
        51  3.889299026E-02  1.246700891E-01  8.806950082E-02  9.645675562E+04  2.493225350E+02  3.479000943E+02  3.014626098E+02  1.431922381E+02  1.602223093E-01 
        52  3.870303970E-02  1.250405990E-01  9.105247242E-02  9.649070239E+04  2.406448789E+02  3.506957617E+02  3.062977753E+02  1.045090048E+02  7.150466170E-02 
        53  3.847530202E-02  1.253810613E-01  9.402032493E-02  9.681082993E+04  2.377923490E+02  3.522271409E+02  3.089736975E+02  7.107933646E+01 -1.615967238E-01 
        54  3.809583015E-02  1.257752167E-01  9.695318516E-02  9.824626758E+04  2.393406982E+02  3.529933014E+02  3.103069992E+02  4.826948261E+01 -9.114827886E-01 
        55  3.767199372E-02  1.261489404E-01  9.992435767E-02  1.002041631E+05  2.444654369E+02  3.530081720E+02  3.103250194E+02  4.229383433E+01 -1.205058262E+00 
        56  3.723780727E-02  1.265196365E-01  1.028569506E-01  1.028378586E+05  2.404199041E+02  3.524527124E+02  3.093509951E+02  5.736023778E+01 -5.235340752E-01 
        57  3.672955052E-02  1.269046997E-01  1.057947981E-01  1.053898811E+05  2.367412791E+02  3.510689058E+02  3.069339476E+02  9.660024476E+01  3.492665535E-02 
        58  3.615520807E-02  1.273091289E-01  1.087154776E-01  1.069372788E+05  2.443380308E+02  3.486130590E+02  3.026603289E+02  1.415468650E+02  1.609412394E-01 
        59  3.556812424E-02  1.277144368E-01  1.116309472E-01  1.074738795E+05  2.556598468E+02  3.459613371E+02  2.980673056E+02  1.740482018E+02  1.924439855E-01 
        60  3.495651588E-02  1.281329458E-01  1.145394580E-01  1.076280984E+05  2.635039654E+02  3.441080189E+02  2.948745904E+02  1.899637604E+02  1.961388881E-01 
        61  3.433795015E-02  1.285471243E-01  1.174457346E-01  1.077710378E+05  2.674926426E+02  3.432501526E+02  2.934032474E+02  1.961240988E+02  1.939252429E-01 
        62  3.376061330E-02  1.289460490E-01  1.203607660E-01  1.079101334E+05  2.695835733E+02  3.430299177E+02  2.930265486E+02  1.982950988E+02  1.902169802E-01 
        63  3.331803132E-02  1.293309423E-01  1.232882868E-01  1.079908884E+05  2.711195800E+02  3.430289081E+02  2.930247828E+02  1.994203808E+02  1.866114998E-01 
        64  3.310586596E-02  1.296649637E-01  1.262581306E-01  1.079615621E+05  2.723879738E+02  3.430606017E+02  2.930789602E+02  2.002870489E+02  1.838284503E-01 
        65  3.306639982E-02  1.299493947E-01  1.292495641E-01  1.078688240E+05  2.733907061E+02  3.430712668E+02  2.930971892E+02  2.011294584E+02  1.825865651E-01 
        66  3.322486525E-02  1.302097713E-01  1.322380794E-01  1.077303962E+05  2.743743214E+02  3.430348524E+02  2.930350108E+02  2.021956927E+02  1.824447114E-01 
        67  3.356462385E-02  1.304573038E-01  1.352130229E-01  1.075854871E+05  2.754419395E+02  3.429768838E+02  2.929359453E+02  2.035334107E+02  1.830985378E-01 
        68  3.400410102E-02  1.306751199E-01  1.381765647E-01  1.073734822E+05  2.764932165E+02  3.428828316E+02  2.927752593E+02  2.049396739E+02  1.839935768E-01 
        69  3.451963359E-02  1.308741206E-01  1.411278790E-01  1.070828545E+05  2.775254574E+02  3.427546082E+02  2.925564001E+02  2.064395070E+02  1.853921777E-01 
        70  3.508991352E-02  1.310576265E-01  1.440660380E-01  1.067295543E+05  2.786933267E+02  3.425978651E+02  2.922888372E+02  2.080972009E+02  1.865632650E-01 
        71  3.570211579E-02  1.312503676E-01  1.470000000E-01  1.063198965E+05  2.801242142E+02  3.424102745E+02  2.919692688E+02  2.101703339E+02  1.873847879E-01 
        72 -2.843361623E-02  1.708417341E-01 -4.258217492E-02  8.203858618E+04  1.836639762E+02  3.299808283E+02  2.711566839E+02  3.441037531E+02  1.007651508E+00 
        73 -2.838826984E-02  1.709653765E-01 -3.916427879E-02  8.202792096E+04  1.843966212E+02  3.299377911E+02  2.710860105E+02  3.448811102E+02  1.006571706E+00 
        74 -2.835908450E-02  1.711140563E-01 -3.574649433E-02  8.235570917E+04  1.837679176E+02  3.301642609E+02  2.714582844E+02  3.438518558E+02  1.006848236E+00 
        75 -2.838361088E-02  1.712589164E-01 -3.232950605E-02  8.300259009E+04  1.827232776E+02  3.305450659E+02  2.720849581E+02  3.420916624E+02  1.007311817E+00 
        76 -2.841360827E-02  1.714319125E-01 -2.891476756E-02  8.376077893E+04  1.816988726E+02  3.309409432E+02  2.727369747E+02  3.406658931E+02  1.008320523E+00 
        77 -2.833774301E-02  1.716334782E-01 -2.549995819E-02  8.428395889E+04  1.805533974E+02  3.312521765E+02  2.732501491E+02  3.390382534E+02  1.009437341E+00 
        78 -2.791452343E-02  1.719215161E-01 -2.212016887E-02  8.447527588E+04  1.800043392E+02  3.313537388E+02  2.734177351E+02  3.388550377E+02  1.011031412E+00 
        79 -2.700703325E-02  1.722886754E-01 -1.884820631E-02  8.425234619E+04  1.797511473E+02  3.312245750E+02  2.732047310E+02  3.398236132E+02  1.013667796E+00 
        80 -2.544395246E-02  1.727209334E-01 -1.584518523E-02  8.320240680E+04  1.811702453E+02  3.306394956E+02  2.722406557E+02  3.426092060E+02  1.013825369E+00 
        81 -2.351536464E-02  1.732363399E-01 -1.306823492E-02  8.126130420E+04  1.850946328E+02  3.294975504E+02  2.703640146E+02  3.489085566E+02  1.011820424E+00 
        82 -2.134527601E-02  1.737374909E-01 -1.047435973E-02  7.864093240E+04  1.911539230E+02  3.279586513E+02  2.678452946E+02  3.568158172E+02  1.006143066E+00 
        83 -1.897326710E-02  1.742189522E-01 -8.035177519E-03  7.557030960E+04  1.992821752E+02  3.260931298E+02  2.648072678E+02  3.657209388E+02  9.961472144E-01 
        84 -1.652827274E-02  1.746780172E-01 -5.688541800E-03  7.304228442E+04  2.069228637E+02  3.244973192E+02  2.622216723E+02  3.728076639E+02  9.848595420E-01 
        85 -1.397929867E-02  1.751251779E-01 -3.446989688E-03  7.239428821E+04  2.105142989E+02  3.241067986E+02  2.615898051E+02  3.749042540E+02  9.768501259E-01 
        86 -1.139011487E-02  1.755573757E-01 -1.256774906E-03  7.406549731E+04  2.091584883E+02  3.251941514E+02  2.633503256E+02  3.701633196E+02  9.714484327E-01 
        87 -8.734274343E-03  1.759085237E-01  8.667805443E-04  7.944928430E+04  2.031495310E+02  3.283442316E+02  2.684838741E+02  3.552765653E+02  9.632906429E-01 
        88 -6.073383534E-03  1.762548475E-01  2.984781313E-03  8.857154486E+04  1.916127874E+02  3.334320724E+02  2.768659673E+02  3.318707538E+02  9.628157984E-01 
        89 -3.359730182E-03  1.765819110E-01  5.053045394E-03  9.840822021E+04  1.750046172E+02  3.385040379E+02  2.853497154E+02  3.045211942E+02  9.831575002E-01 
        90 -6.741955509E-04  1.768270807E-01  7.130208361E-03  9.801603969E+04  1.659716328E+02  3.381623802E+02  2.847733039E+02  3.065998574E+02  1.016741252E+00 
        91  2.027043660E-03  1.770783858E-01  9.208570588E-03  7.913504361E+04  1.927431176E+02  3.280941747E+02  2.680710481E+02  3.586460279E+02  1.004575233E+00 
        92  4.731686997E-03  1.772422585E-01  1.127155269E-02  7.249846928E+04  2.132561457E+02  3.244006932E+02  2.620658314E+02  3.772841086E+02  9.720754430E-01 
        93  7.454465044E-03  1.773874983E-01  1.334309669E-02  7.300881599E+04  2.112914680E+02  3.243544937E+02  2.619918410E+02  3.745311967E+02  9.731105145E-01 
        94  1.015989937E-02  1.775222933E-01  1.545596277E-02  7.049263670E+04  2.184892609E+02  3.227950828E+02  2.594832660E+02  3.818857862E+02  9.639661355E-01 
        95  1.284858280E-02  1.775661421E-01  1.756817794E-02  6.708555353E+04  2.288231529E+02  3.205866342E+02  2.559447792E+02  3.920408156E+02  9.509151210E-01 
        96  1.551966693E-02  1.776138061E-01  1.970369132E-02  6.418148560E+04  2.366498084E+02  3.186965098E+02  2.529355080E+02  3.997325902E+02  9.417739399E-01 
        97  1.817410325E-02  1.776258069E-01  2.186017323E-02  6.184833911E+04  2.449470303E+02  3.169992018E+02  2.502474742E+02  4.074948330E+02  9.316111347E-01 
        98  2.080993586E-02  1.775631240E-01  2.403936301E-02  6.022721899E+04  2.525021100E+02  3.158546872E+02  2.484403405E+02  4.131810598E+02  9.194045234E-01 
        99  2.341570779E-02  1.774969016E-01  2.625394818E-02  5.982148584E+04  2.575535750E+02  3.156703243E+02  2.481502399E+02  4.147539921E+02  9.060874805E-01 
       100  2.600295182E-02  1.773818036E-01  2.848806157E-02  6.160957788E+04  2.587570505E+02  3.170705996E+02  2.503718634E+02  4.098144569E+02  8.908307664E-01 
       101  2.856627515E-02  1.771883875E-01  3.074502562E-02  6.703046338E+04  2.537238760E+02  3.209230499E+02  2.565359344E+02  3.938025723E+02  8.731514849E-01 
       102  3.110662233E-02  1.769811535E-01  3.302644514E-02  7.520510498E+04  2.457322073E+02  3.262116766E+02  2.650626507E+02  3.705413151E+02  8.519710694E-01 
       103  3.362247542E-02  1.767159818E-01  3.532849163E-02  8.161583533E+04  2.432622676E+02  3.299222031E+02  2.710800090E+02  3.534618092E+02  8.266125061E-01 
       104  3.610895472E-02  1.763647845E-01  3.765120331E-02  8.252757813E+04  2.483805356E+02  3.303287201E+02  2.717335324E+02  3.514639544E+02  8.055668231E-01 
       105  3.856497337E-02  1.759966372E-01  4.000321012E-02  7.993360416E+04  2.560222949E+02  3.289737216E+02  2.695077807E+02  3.582953520E+02  7.925276323E-01 
       106  4.103059304E-02  1.755360248E-01  4.234569910E-02  7.804193339E+04  2.633829071E+02  3.279057265E+02  2.677576587E+02  3.638164085E+02  7.780363261E-01 
       107  4.340106546E-02  1.750377176E-01  4.474435622E-02  7.916170447E+04  2.668822218E+02  3.284934036E+02  2.687208807E+02  3.617825094E+02  7.623802531E-01 
       108  4.575540032E-02  1.745445103E-01  4.717695363E-02  8.354593359E+04  2.650347755E+02  3.309273500E+02  2.727252493E+02  3.499153686E+02  7.467054706E-01 
       109  4.807037784E-02  1.739953488E-01  4.963532790E-02  8.979864038E+04  2.600287790E+02  3.343042259E+02  2.783205042E+02  3.325417471E+02  7.330963649E-01 
       110  5.034733117E-02  1.734133857E-01  5.212084081E-02  9.516012500E+04  2.574456882E+02  3.370197659E+02  2.828529415E+02  3.179602528E+02  7.175226584E-01 
       111  5.258765486E-02  1.728405975E-01  5.464144749E-02  9.849253271E+04  2.582577934E+02  3.386937065E+02  2.856669884E+02  3.097589359E+02  7.014645673E-01 
       112  5.479076840E-02  1.722430532E-01  5.718902978E-02  1.011190181E+05  2.592549639E+02  3.400545053E+02  2.879670696E+02  3.033267937E+02  6.878864560E-01 
       113  5.694737683E-02  1.716020731E-01  5.976586917E-02  1.041943693E+05  2.585188601E+02  3.416279652E+02  2.906379902E+02  2.947602444E+02  6.778396261E-01 
       114  5.911848447E-02  1.709340834E-01  6.233872565E-02  1.076641850E+05  2.569347929E+02  3.432517168E+02  2.934066698E+02  2.854108986E+02  6.700577642E-01 
       115  6.119351897E-02  1.703313828E-01  6.496775561E-02  1.107401978E+05  2.556306272E+02  3.445615025E+02  2.956500001E+02  2.772029819E+02  6.641927473E-01 
       116  6.319798910E-02  1.696485115E-01  6.765543605E-02  1.134411550E+05  2.541862545E+02  3.457066889E+02  2.976180925E+02  2.700922561E+02  6.605701335E-01 
       117  6.520189851E-02  1.689621155E-01  7.034628384E-02  1.155114268E+05  2.536551304E+02  3.465897608E+02  2.991402140E+02  2.646818647E+02  6.560414229E-01 
       118  6.717992039E-02  1.682884043E-01  7.305807409E-02  1.172154292E+05  2.519839449E+02  3.474165831E+02  3.005690689E+02  2.598581944E+02  6.571682692E-01 
       119  6.910755662E-02  1.675987334E-01  7.579818779E-02  1.186134530E+05  2.507626131E+02  3.479498615E+02  3.014924397E+02  2.560088706E+02  6.581828133E-01 
       120  7.101404689E-02  1.668389198E-01  7.852135391E-02  1.196239265E+05  2.479480127E+02  3.483811698E+02  3.022404487E+02  2.533643637E+02  6.667856905E-01 
