nodenumber     x-coordinate     y-coordinate     z-coordinate         pressure velocity-magnitude      sound-speed      temperature rel-velocity-magnitude relative-velocity-angle 
         1 -2.216901913E-02  1.039879580E-01 -4.300600202E-02  8.755025107E+04  1.539407389E+02  3.330498148E+02  2.762239171E+02  2.357864908E+02  8.594695616E-01 
         2 -2.197401757E-02  1.042260031E-01 -4.002397295E-02  8.746437646E+04  1.544164507E+02  3.330066199E+02  2.761523094E+02  2.363209021E+02  8.589415767E-01 
         3 -2.150271627E-02  1.045375264E-01 -3.708169353E-02  8.737110010E+04  1.550065329E+02  3.329567473E+02  2.760695424E+02  2.369700242E+02  8.582902779E-01 
         4 -2.072290556E-02  1.049359494E-01 -3.421635317E-02  8.727367285E+04  1.556424086E+02  3.329052019E+02  2.759840617E+02  2.376912246E+02  8.577283742E-01 
         5 -1.964621854E-02  1.053757771E-01 -3.145501365E-02  8.714665625E+04  1.563547206E+02  3.328373928E+02  2.758716884E+02  2.384814768E+02  8.570322040E-01 
         6 -1.833909717E-02  1.058829391E-01 -2.880182754E-02  8.698032837E+04  1.571774173E+02  3.327499084E+02  2.757267461E+02  2.393886499E+02  8.561812490E-01 
         7 -1.686396899E-02  1.064019756E-01 -2.624136390E-02  8.681911646E+04  1.579883127E+02  3.326658754E+02  2.755874882E+02  2.403735905E+02  8.557244204E-01 
         8 -1.524276490E-02  1.069101094E-01 -2.376908005E-02  8.663642480E+04  1.588854139E+02  3.325701761E+02  2.754289937E+02  2.414156094E+02  8.550339639E-01 
         9 -1.353040875E-02  1.074492491E-01 -2.136449246E-02  8.639996655E+04  1.600324364E+02  3.324441161E+02  2.752201691E+02  2.426569040E+02  8.537098626E-01 
        10 -1.175719847E-02  1.079385502E-01 -1.899452623E-02  8.618748566E+04  1.613899583E+02  3.323242047E+02  2.750216091E+02  2.438737977E+02  8.512024423E-01 
        11 -9.920451205E-03  1.084473482E-01 -1.667649769E-02  8.608282388E+04  1.626485569E+02  3.322548950E+02  2.749069824E+02  2.448667852E+02  8.484475086E-01 
        12 -8.053093039E-03  1.089314126E-01 -1.437870322E-02  8.615960281E+04  1.635280517E+02  3.322859830E+02  2.749584676E+02  2.449200225E+02  8.443740103E-01 
        13 -6.139911673E-03  1.093816015E-01 -1.211111235E-02  8.663543262E+04  1.630628171E+02  3.325441513E+02  2.753858662E+02  2.434854569E+02  8.424658161E-01 
        14 -4.213714023E-03  1.098625599E-01 -9.853315987E-03  8.748786816E+04  1.606474361E+02  3.330203629E+02  2.761751518E+02  2.406519709E+02  8.464217782E-01 
        15 -2.267252226E-03  1.102821410E-01 -7.616721013E-03  8.853243066E+04  1.564331694E+02  3.335851669E+02  2.771128130E+02  2.370843563E+02  8.580634445E-01 
        16 -3.058463972E-04  1.106716081E-01 -5.380345181E-03  8.940839429E+04  1.498458242E+02  3.340122671E+02  2.778230114E+02  2.340227942E+02  8.851437755E-01 
        17  1.649896870E-03  1.110991589E-01 -3.144821902E-03  8.744831982E+04  1.457812377E+02  3.330479932E+02  2.762235320E+02  2.421656845E+02  9.352476895E-01 
        18  3.605378217E-03  1.114680886E-01 -8.997268064E-04  7.558103003E+04  1.736500120E+02  3.263317685E+02  2.651940308E+02  2.846194687E+02  9.445289578E-01 
        19  5.548952344E-03  1.118349081E-01  1.356589372E-03  6.976586609E+04  2.105314182E+02  3.225674233E+02  2.591123457E+02  3.085757942E+02  8.430763297E-01 
        20  7.472030685E-03  1.121892539E-01  3.633809071E-03  7.280698581E+04  2.127565026E+02  3.245314838E+02  2.622821997E+02  2.976491389E+02  7.857869619E-01 
        21  9.366594022E-03  1.125505666E-01  5.932977735E-03  7.650692303E+04  2.078841223E+02  3.269257679E+02  2.661633286E+02  2.841856401E+02  7.580913156E-01 
        22  1.122147558E-02  1.129077905E-01  8.263617067E-03  7.887685474E+04  2.087081371E+02  3.282522891E+02  2.683251975E+02  2.782814675E+02  7.318886666E-01 
        23  1.303284284E-02  1.132507638E-01  1.062953057E-02  8.043383232E+04  2.117075148E+02  3.291246137E+02  2.697524747E+02  2.737545431E+02  7.000948990E-01 
        24  1.479928419E-02  1.136234762E-01  1.303021626E-02  8.158356819E+04  2.158658262E+02  3.298286757E+02  2.709078116E+02  2.690453259E+02  6.617175436E-01 
        25  1.649617427E-02  1.139938279E-01  1.547769530E-02  8.261680066E+04  2.206322317E+02  3.304093225E+02  2.718624599E+02  2.650495186E+02  6.230913415E-01 
        26  1.811807173E-02  1.143837002E-01  1.797032872E-02  8.336564954E+04  2.260913572E+02  3.307638168E+02  2.724457402E+02  2.627447782E+02  5.872231284E-01 
        27  1.968166241E-02  1.148013513E-01  2.049621310E-02  8.350619318E+04  2.330665243E+02  3.307563272E+02  2.724332213E+02  2.630366170E+02  5.529117119E-01 
        28  2.119101764E-02  1.152299366E-01  2.305322148E-02  8.299776522E+04  2.415287474E+02  3.304322353E+02  2.718995099E+02  2.654065722E+02  5.183283183E-01 
        29  2.266338778E-02  1.156643914E-01  2.563116057E-02  8.237183917E+04  2.502476034E+02  3.300293112E+02  2.712369603E+02  2.684944125E+02  4.850546785E-01 
        30  2.408077791E-02  1.161159634E-01  2.823658064E-02  8.184087933E+04  2.585337024E+02  3.296859612E+02  2.706727786E+02  2.714193466E+02  4.536920483E-01 
        31  2.544088325E-02  1.165921105E-01  3.086849856E-02  8.130004749E+04  2.666701987E+02  3.293409948E+02  2.701068494E+02  2.743341312E+02  4.233831121E-01 
        32  2.674433127E-02  1.170738851E-01  3.352942364E-02  8.073713867E+04  2.746055598E+02  3.290347247E+02  2.696047380E+02  2.771635685E+02  3.940298161E-01 
        33  2.797950643E-02  1.175445507E-01  3.622298897E-02  8.021276929E+04  2.823149182E+02  3.288054060E+02  2.692288446E+02  2.797454674E+02  3.650249565E-01 
        34  2.916313541E-02  1.180056499E-01  3.893937175E-02  7.992489529E+04  2.894089469E+02  3.287227752E+02  2.690935035E+02  2.815831985E+02  3.364339073E-01 
        35  3.031249539E-02  1.184785399E-01  4.167042727E-02  8.007027710E+04  2.951782291E+02  3.288494678E+02  2.693009976E+02  2.821182328E+02  3.097940297E-01 
        36  3.139929926E-02  1.189405785E-01  4.442941843E-02  8.035834079E+04  3.005616089E+02  3.290423731E+02  2.696169556E+02  2.820603385E+02  2.828278203E-01 
        37  3.242013936E-02  1.193808800E-01  4.721660669E-02  8.083995552E+04  3.056897070E+02  3.293030118E+02  2.700444093E+02  2.813229242E+02  2.542719959E-01 
        38  3.340677803E-02  1.198011670E-01  5.002067675E-02  8.201021021E+04  3.086828122E+02  3.299324948E+02  2.710781306E+02  2.783137760E+02  2.279043578E-01 
        39  3.430413654E-02  1.201853153E-01  5.285529857E-02  8.356967432E+04  3.104895678E+02  3.308234015E+02  2.725445900E+02  2.738853712E+02  2.020567739E-01 
        40  3.515433510E-02  1.205874318E-01  5.570324370E-02  8.549099023E+04  3.109886742E+02  3.318993721E+02  2.743208332E+02  2.682264595E+02  1.784004532E-01 
        41  3.592907297E-02  1.209644065E-01  5.857535950E-02  8.771403638E+04  3.099688663E+02  3.331112242E+02  2.763282499E+02  2.614773545E+02  1.587905651E-01 
        42  3.664355424E-02  1.213334730E-01  6.146049591E-02  9.009406750E+04  3.074142456E+02  3.343422017E+02  2.783743048E+02  2.540745978E+02  1.453957583E-01 
        43  3.727845098E-02  1.217084379E-01  6.437276718E-02  9.237150562E+04  3.038976374E+02  3.355053272E+02  2.803139420E+02  2.469055624E+02  1.389028165E-01 
        44  3.781448665E-02  1.220744111E-01  6.730672953E-02  9.426650195E+04  3.002217903E+02  3.365056391E+02  2.819874668E+02  2.408524861E+02  1.384427762E-01 
        45  3.826762164E-02  1.224563704E-01  7.025293559E-02  9.560555798E+04  2.972210715E+02  3.372591748E+02  2.832513001E+02  2.367466578E+02  1.424077277E-01 
        46  3.856443464E-02  1.228195695E-01  7.317567491E-02  9.637249219E+04  2.954476242E+02  3.377347260E+02  2.840505981E+02  2.348013306E+02  1.479409337E-01 
        47  3.882754171E-02  1.231963568E-01  7.616928387E-02  9.672755850E+04  2.935664278E+02  3.384065106E+02  2.851828197E+02  2.326411506E+02  1.536474356E-01 
        48  3.896508106E-02  1.235573809E-01  7.913505459E-02  9.685466211E+04  2.899068031E+02  3.393665466E+02  2.868126183E+02  2.267873535E+02  1.570990086E-01 
        49  3.903512947E-02  1.239238609E-01  8.213137167E-02  9.690393323E+04  2.810078349E+02  3.411945946E+02  2.899342163E+02  2.120891788E+02  1.662137362E-01 
        50  3.900153017E-02  1.243001337E-01  8.510504302E-02  9.684528027E+04  2.647739220E+02  3.444146758E+02  2.954508749E+02  1.838132780E+02  1.788422830E-01 
        51  3.889299026E-02  1.246700891E-01  8.806950082E-02  9.659839392E+04  2.476633098E+02  3.481242721E+02  3.018517249E+02  1.402211435E+02  1.665940797E-01 
        52  3.870303970E-02  1.250405990E-01  9.105247242E-02  9.650594360E+04  2.386732106E+02  3.510205221E+02  3.068628893E+02  9.982445276E+01  7.047926721E-02 
        53  3.847530202E-02  1.253810613E-01  9.402032493E-02  9.667542068E+04  2.359704379E+02  3.523783824E+02  3.092365819E+02  6.620016985E+01 -1.541798636E-01 
        54  3.809583015E-02  1.257752167E-01  9.695318516E-02  9.780434668E+04  2.360672531E+02  3.530390129E+02  3.103862801E+02  4.462469554E+01 -1.033114642E+00 
        55  3.767199372E-02  1.261489404E-01  9.992435767E-02  9.952776245E+04  2.452119460E+02  3.527157488E+02  3.098107958E+02  4.231541896E+01 -1.390634496E+00 
        56  3.723780727E-02  1.265196365E-01  1.028569506E-01  1.019087447E+05  2.473232763E+02  3.519437823E+02  3.084567525E+02  5.617354907E+01 -8.594491426E-01 
        57  3.672955052E-02  1.269046997E-01  1.057947981E-01  1.046611011E+05  2.368830318E+02  3.506545825E+02  3.062055488E+02  9.521214008E+01 -9.038098797E-03 
        58  3.615520807E-02  1.273091289E-01  1.087154776E-01  1.069720039E+05  2.404988532E+02  3.480795774E+02  3.017323837E+02  1.446325231E+02  2.026636605E-01 
        59  3.556812424E-02  1.277144368E-01  1.116309472E-01  1.078956642E+05  2.530598848E+02  3.455525169E+02  2.973619492E+02  1.761685997E+02  2.172037826E-01 
        60  3.495651588E-02  1.281329458E-01  1.145394580E-01  1.080057227E+05  2.622408886E+02  3.440409331E+02  2.947590303E+02  1.891533051E+02  2.012003553E-01 
        61  3.433795015E-02  1.285471243E-01  1.174457346E-01  1.079127618E+05  2.671063795E+02  3.433119421E+02  2.935088930E+02  1.943647792E+02  1.900481225E-01 
        62  3.376061330E-02  1.289460490E-01  1.203607660E-01  1.078433755E+05  2.693332105E+02  3.430678732E+02  2.930914390E+02  1.969963629E+02  1.871294028E-01 
        63  3.331803132E-02  1.293309423E-01  1.232882868E-01  1.077996681E+05  2.707794724E+02  3.430242884E+02  2.930169066E+02  1.983407522E+02  1.848512554E-01 
        64  3.310586596E-02  1.296649637E-01  1.262581306E-01  1.077303438E+05  2.720395880E+02  3.430173864E+02  2.930051014E+02  1.994436628E+02  1.829532200E-01 
        65  3.306639982E-02  1.299493947E-01  1.292495641E-01  1.076520189E+05  2.731929460E+02  3.430029171E+02  2.929804173E+02  2.004925361E+02  1.815212867E-01 
        66  3.322486525E-02  1.302097713E-01  1.322380794E-01  1.075716538E+05  2.742938156E+02  3.429778408E+02  2.929375389E+02  2.017548974E+02  1.813640564E-01 
        67  3.356462385E-02  1.304573038E-01  1.352130229E-01  1.074639693E+05  2.753772260E+02  3.429336818E+02  2.928622139E+02  2.032279552E+02  1.824072408E-01 
        68  3.400410102E-02  1.306751199E-01  1.381765647E-01  1.072537158E+05  2.764924457E+02  3.428367081E+02  2.926965554E+02  2.047700579E+02  1.834020317E-01 
        69  3.451963359E-02  1.308741206E-01  1.411278790E-01  1.069823302E+05  2.776391304E+02  3.427089634E+02  2.924784596E+02  2.063518679E+02  1.844026053E-01 
        70  3.508991352E-02  1.310576265E-01  1.440660380E-01  1.066805039E+05  2.787692306E+02  3.425775194E+02  2.922541611E+02  2.081397939E+02  1.862641515E-01 
        71  3.570211579E-02  1.312503676E-01  1.470000000E-01  1.063195215E+05  2.802132454E+02  3.424003983E+02  2.919521904E+02  2.103271694E+02  1.874142028E-01 
        72 -2.843361623E-02  1.708417341E-01 -4.258217492E-02  8.204308960E+04  1.836035233E+02  3.299973993E+02  2.711839495E+02  3.441202316E+02  1.007906433E+00 
        73 -2.838826984E-02  1.709653765E-01 -3.916427879E-02  8.203416089E+04  1.843313713E+02  3.299481876E+02  2.711031067E+02  3.449879136E+02  1.007030202E+00 
        74 -2.835908450E-02  1.711140563E-01 -3.574649433E-02  8.237279034E+04  1.838405371E+02  3.301563368E+02  2.714452531E+02  3.437455065E+02  1.006440511E+00 
        75 -2.838361088E-02  1.712589164E-01 -3.232950605E-02  8.300210425E+04  1.828031359E+02  3.305363455E+02  2.720706482E+02  3.421180248E+02  1.007130377E+00 
        76 -2.841360827E-02  1.714319125E-01 -2.891476756E-02  8.368018359E+04  1.817822475E+02  3.309120212E+02  2.726893754E+02  3.408966985E+02  1.008465001E+00 
        77 -2.833774301E-02  1.716334782E-01 -2.549995819E-02  8.418383911E+04  1.807968148E+02  3.311885031E+02  2.731452537E+02  3.393328401E+02  1.009193756E+00 
        78 -2.791452343E-02  1.719215161E-01 -2.212016887E-02  8.446250928E+04  1.800492821E+02  3.313417301E+02  2.733981323E+02  3.389090405E+02  1.011089176E+00 
        79 -2.700703325E-02  1.722886754E-01 -1.884820631E-02  8.429371509E+04  1.796034083E+02  3.312489395E+02  2.732450972E+02  3.396558828E+02  1.013976485E+00 
        80 -2.544395246E-02  1.727209334E-01 -1.584518523E-02  8.322940363E+04  1.810116905E+02  3.306506724E+02  2.722592227E+02  3.427922525E+02  1.014714395E+00 
        81 -2.351536464E-02  1.732363399E-01 -1.306823492E-02  8.133187656E+04  1.846581721E+02  3.295675800E+02  2.704788005E+02  3.482646596E+02  1.012217187E+00 
        82 -2.134527601E-02  1.737374909E-01 -1.047435973E-02  7.870789005E+04  1.907506240E+02  3.280206649E+02  2.679460704E+02  3.564093775E+02  1.006832068E+00 
        83 -1.897326710E-02  1.742189522E-01 -8.035177519E-03  7.542181833E+04  1.997950343E+02  3.260010028E+02  2.646577874E+02  3.654916834E+02  9.940215773E-01 
        84 -1.652827274E-02  1.746780172E-01 -5.688541800E-03  7.288053870E+04  2.075303962E+02  3.244163814E+02  2.620902431E+02  3.731563768E+02  9.834820619E-01 
        85 -1.397929867E-02  1.751251779E-01 -3.446989688E-03  7.240533569E+04  2.107970190E+02  3.241213260E+02  2.616130629E+02  3.746019778E+02  9.750998262E-01 
        86 -1.139011487E-02  1.755573757E-01 -1.256774906E-03  7.404089709E+04  2.089391110E+02  3.252227159E+02  2.633953195E+02  3.703805213E+02  9.723385666E-01 
        87 -8.734274343E-03  1.759085237E-01  8.667805443E-04  7.932732129E+04  2.035875909E+02  3.282906265E+02  2.683920939E+02  3.553748825E+02  9.614056395E-01 
        88 -6.073383534E-03  1.762548475E-01  2.984781313E-03  8.859585571E+04  1.910489109E+02  3.334650395E+02  2.769182607E+02  3.321878464E+02  9.647944695E-01 
        89 -3.359730182E-03  1.765819110E-01  5.053045394E-03  9.870989355E+04  1.736757301E+02  3.387198830E+02  2.857137226E+02  3.037436876E+02  9.866090612E-01 
        90 -6.741955509E-04  1.768270807E-01  7.130208361E-03  9.757473219E+04  1.659117860E+02  3.380458043E+02  2.845764352E+02  3.076775937E+02  1.018540845E+00 
        91  2.027043660E-03  1.770783858E-01  9.208570588E-03  7.912906528E+04  1.918123233E+02  3.281484297E+02  2.681613479E+02  3.583055266E+02  1.007102911E+00 
        92  4.731686997E-03  1.772422585E-01  1.127155269E-02  7.285707623E+04  2.117787278E+02  3.244445994E+02  2.621386612E+02  3.740225720E+02  9.705045696E-01 
        93  7.454465044E-03  1.773874983E-01  1.334309669E-02  7.324855609E+04  2.106392629E+02  3.246047160E+02  2.623954832E+02  3.758297986E+02  9.775745429E-01 
        94  1.015989937E-02  1.775222933E-01  1.545596277E-02  7.063639782E+04  2.179507174E+02  3.229521923E+02  2.597350275E+02  3.829417007E+02  9.677670506E-01 
        95  1.284858280E-02  1.775661421E-01  1.756817794E-02  6.712957361E+04  2.278071297E+02  3.207348624E+02  2.561828685E+02  3.912525451E+02  9.528478640E-01 
        96  1.551966693E-02  1.776138061E-01  1.970369132E-02  6.418859698E+04  2.372621231E+02  3.186570885E+02  2.528733270E+02  4.003066444E+02  9.411728121E-01 
        97  1.817410325E-02  1.776258069E-01  2.186017323E-02  6.183245276E+04  2.456152673E+02  3.169682093E+02  2.501976323E+02  4.078438764E+02  9.301823759E-01 
        98  2.080993586E-02  1.775631240E-01  2.403936301E-02  6.018553381E+04  2.527730765E+02  3.158309197E+02  2.484030032E+02  4.131082096E+02  9.183400292E-01 
        99  2.341570779E-02  1.774969016E-01  2.625394818E-02  5.977687683E+04  2.574466128E+02  3.156168747E+02  2.480667238E+02  4.142914133E+02  9.054687563E-01 
       100  2.600295182E-02  1.773818036E-01  2.848806157E-02  6.149973877E+04  2.589797688E+02  3.168817301E+02  2.500730419E+02  4.099736586E+02  8.904218897E-01 
       101  2.856627515E-02  1.771883875E-01  3.074502562E-02  6.688377930E+04  2.545099754E+02  3.206890020E+02  2.561652069E+02  3.948875675E+02  8.728467263E-01 
       102  3.110662233E-02  1.769811535E-01  3.302644514E-02  7.509252368E+04  2.463992033E+02  3.261603374E+02  2.649824047E+02  3.712714224E+02  8.512184490E-01 
       103  3.362247542E-02  1.767159818E-01  3.532849163E-02  8.160160254E+04  2.432854671E+02  3.300592804E+02  2.713064251E+02  3.533999929E+02  8.265598696E-01 
       104  3.610895472E-02  1.763647845E-01  3.765120331E-02  8.277822656E+04  2.479008799E+02  3.305750251E+02  2.721395278E+02  3.506808996E+02  8.060032064E-01 
       105  3.856497337E-02  1.759966372E-01  4.000321012E-02  8.028490326E+04  2.566758335E+02  3.290724124E+02  2.696709167E+02  3.588859400E+02  7.915534782E-01 
       106  4.103059304E-02  1.755360248E-01  4.234569910E-02  7.825692913E+04  2.638752528E+02  3.279896731E+02  2.678951976E+02  3.639295030E+02  7.765614091E-01 
       107  4.340106546E-02  1.750377176E-01  4.474435622E-02  7.917034496E+04  2.663325813E+02  3.287103483E+02  2.690763113E+02  3.608900742E+02  7.625163561E-01 
       108  4.575540032E-02  1.745445103E-01  4.717695363E-02  8.331392224E+04  2.649820240E+02  3.310612922E+02  2.729446959E+02  3.498018208E+02  7.466939315E-01 
       109  4.807037784E-02  1.739953488E-01  4.963532790E-02  8.940693945E+04  2.610766783E+02  3.342027836E+02  2.781500301E+02  3.334104414E+02  7.309473418E-01 
       110  5.034733117E-02  1.734133857E-01  5.212084081E-02  9.490815820E+04  2.581498165E+02  3.369027309E+02  2.826570301E+02  3.185094147E+02  7.159906626E-01 
       111  5.258765486E-02  1.728405975E-01  5.464144749E-02  9.847336377E+04  2.578858662E+02  3.386566048E+02  2.856044979E+02  3.087068100E+02  7.011424005E-01 
       112  5.479076840E-02  1.722430532E-01  5.718902978E-02  1.012534973E+05  2.583162985E+02  3.400545788E+02  2.879672003E+02  3.018756342E+02  6.891198345E-01 
       113  5.694737683E-02  1.716020731E-01  5.976586917E-02  1.044474786E+05  2.579830403E+02  3.416054602E+02  2.905996010E+02  2.943485649E+02  6.792469616E-01 
       114  5.911848447E-02  1.709340834E-01  6.233872565E-02  1.079531200E+05  2.567449308E+02  3.432907491E+02  2.934736242E+02  2.857510432E+02  6.712636271E-01 
       115  6.119351897E-02  1.703313828E-01  6.496775561E-02  1.109355845E+05  2.556185055E+02  3.446766663E+02  2.958476372E+02  2.773408952E+02  6.643659547E-01 
       116  6.319798910E-02  1.696485115E-01  6.765543605E-02  1.133862422E+05  2.543844099E+02  3.457793694E+02  2.977432194E+02  2.700791726E+02  6.597122010E-01 
       117  6.520189851E-02  1.689621155E-01  7.034628384E-02  1.153957642E+05  2.536631784E+02  3.465324812E+02  2.990414934E+02  2.646217022E+02  6.559991948E-01 
       118  6.717992039E-02  1.682884043E-01  7.305807409E-02  1.172244443E+05  2.515664463E+02  3.473649864E+02  3.004797850E+02  2.601248217E+02  6.592109296E-01 
       119  6.910755662E-02  1.675987334E-01  7.579818779E-02  1.187780562E+05  2.507231290E+02  3.479127107E+02  3.014281404E+02  2.567135649E+02  6.591147063E-01 
       120  7.101404689E-02  1.668389198E-01  7.852135391E-02  1.198405648E+05  2.476087731E+02  3.484907398E+02  3.024304874E+02  2.539880877E+02  6.688404293E-01 
