nodenumber     x-coordinate     y-coordinate     z-coordinate         pressure velocity-magnitude      sound-speed      temperature rel-velocity-magnitude relative-velocity-angle 
         1 -2.216901913E-02  1.039879580E-01 -4.300600202E-02  8.756927979E+04  1.535616288E+02  3.330878738E+02  2.762870966E+02  2.353554767E+02  8.600688345E-01 
         2 -2.197401757E-02  1.042260031E-01 -4.002397295E-02  8.749395712E+04  1.544481542E+02  3.330135267E+02  2.761637974E+02  2.364630120E+02  8.593410966E-01 
         3 -2.150271627E-02  1.045375264E-01 -3.708169353E-02  8.738709753E+04  1.549627599E+02  3.329676800E+02  2.760877228E+02  2.369580297E+02  8.585490510E-01 
         4 -2.072290556E-02  1.049359494E-01 -3.421635317E-02  8.724923413E+04  1.556707194E+02  3.328985987E+02  2.759732704E+02  2.376056230E+02  8.573616818E-01 
         5 -1.964621854E-02  1.053757771E-01 -3.145501365E-02  8.711807715E+04  1.565125294E+02  3.328187075E+02  2.758408432E+02  2.384524212E+02  8.562147170E-01 
         6 -1.833909717E-02  1.058829391E-01 -2.880182754E-02  8.697705566E+04  1.572779708E+02  3.327399273E+02  2.757102342E+02  2.394311047E+02  8.558704108E-01 
         7 -1.686396899E-02  1.064019756E-01 -2.624136390E-02  8.679895166E+04  1.580661454E+02  3.326462536E+02  2.755549469E+02  2.405152650E+02  8.558143843E-01 
         8 -1.524276490E-02  1.069101094E-01 -2.376908005E-02  8.658573303E+04  1.590131693E+02  3.325362773E+02  2.753727999E+02  2.415579362E+02  8.548271582E-01 
         9 -1.353040875E-02  1.074492491E-01 -2.136449246E-02  8.630758313E+04  1.603297904E+02  3.323788013E+02  2.751120987E+02  2.429660203E+02  8.531633643E-01 
        10 -1.175719847E-02  1.079385502E-01 -1.899452623E-02  8.609376654E+04  1.614593002E+02  3.322857456E+02  2.749580085E+02  2.437603705E+02  8.504280429E-01 
        11 -9.920451205E-03  1.084473482E-01 -1.667649769E-02  8.602829214E+04  1.624504002E+02  3.322595307E+02  2.749146261E+02  2.445605490E+02  8.484500709E-01 
        12 -8.053093039E-03  1.089314126E-01 -1.437870322E-02  8.621031027E+04  1.633094640E+02  3.323278095E+02  2.750277014E+02  2.447441061E+02  8.450603159E-01 
        13 -6.139911673E-03  1.093816015E-01 -1.211111235E-02  8.667428613E+04  1.629284005E+02  3.325596914E+02  2.754116325E+02  2.434057579E+02  8.429571744E-01 
        14 -4.213714023E-03  1.098625599E-01 -9.853315987E-03  8.752592920E+04  1.606036768E+02  3.330324421E+02  2.761951809E+02  2.406559744E+02  8.467128798E-01 
        15 -2.267252226E-03  1.102821410E-01 -7.616721013E-03  8.865956934E+04  1.560106001E+02  3.336567860E+02  2.772318792E+02  2.368097878E+02  8.596879765E-01 
        16 -3.058463972E-04  1.106716081E-01 -5.380345181E-03  8.945147021E+04  1.495260096E+02  3.340454121E+02  2.778782787E+02  2.341707673E+02  8.872105461E-01 
        17  1.649896870E-03  1.110991589E-01 -3.144821902E-03  8.731708191E+04  1.437407401E+02  3.331056018E+02  2.763187020E+02  2.398261833E+02  9.393483335E-01 
        18  3.605378217E-03  1.114680886E-01 -8.997268064E-04  7.543368164E+04  1.750257432E+02  3.263206720E+02  2.651776400E+02  2.857857752E+02  9.418314807E-01 
        19  5.548952344E-03  1.118349081E-01  1.356589372E-03  7.005495544E+04  2.079269829E+02  3.229128540E+02  2.596665840E+02  3.061890483E+02  8.472472560E-01 
        20  7.472030685E-03  1.121892539E-01  3.633809071E-03  7.291354416E+04  2.130886089E+02  3.246076922E+02  2.624032994E+02  2.984404695E+02  7.867360448E-01 
        21  9.366594022E-03  1.125505666E-01  5.932977735E-03  7.663968848E+04  2.082512478E+02  3.270780931E+02  2.664119296E+02  2.848437498E+02  7.586906385E-01 
        22  1.122147558E-02  1.129077905E-01  8.263617067E-03  7.911478316E+04  2.075739760E+02  3.285792730E+02  2.688599502E+02  2.750065123E+02  7.256454395E-01 
        23  1.303284284E-02  1.132507638E-01  1.062953057E-02  8.062890558E+04  2.104135261E+02  3.294085091E+02  2.702177138E+02  2.701424690E+02  6.937119339E-01 
        24  1.479928419E-02  1.136234762E-01  1.303021626E-02  8.174478862E+04  2.148824298E+02  3.300224479E+02  2.712263440E+02  2.672919293E+02  6.606344066E-01 
        25  1.649617427E-02  1.139938279E-01  1.547769530E-02  8.277246527E+04  2.196647551E+02  3.305445657E+02  2.720852509E+02  2.643010514E+02  6.256606500E-01 
        26  1.811807173E-02  1.143837002E-01  1.797032872E-02  8.347147437E+04  2.253835127E+02  3.308258638E+02  2.725483470E+02  2.626758647E+02  5.911903316E-01 
        27  1.968166241E-02  1.148013513E-01  2.049621310E-02  8.350370898E+04  2.327496922E+02  3.307587094E+02  2.724379029E+02  2.634073532E+02  5.565010202E-01 
        28  2.119101764E-02  1.152299366E-01  2.305322148E-02  8.294944021E+04  2.412306008E+02  3.304561643E+02  2.719395964E+02  2.656998372E+02  5.211871724E-01 
        29  2.266338778E-02  1.156643914E-01  2.563116057E-02  8.234727863E+04  2.500820078E+02  3.300630147E+02  2.712933469E+02  2.685119975E+02  4.864962867E-01 
        30  2.408077791E-02  1.161159634E-01  2.823658064E-02  8.184546619E+04  2.585028191E+02  3.297222579E+02  2.707333162E+02  2.719576950E+02  4.561569728E-01 
        31  2.544088325E-02  1.165921105E-01  3.086849856E-02  8.132154651E+04  2.664546409E+02  3.294440088E+02  2.702764950E+02  2.752173562E+02  4.278106284E-01 
        32  2.674433127E-02  1.170738851E-01  3.352942364E-02  8.074382239E+04  2.743369265E+02  3.291841073E+02  2.698501222E+02  2.780729034E+02  3.987199157E-01 
        33  2.797950643E-02  1.175445507E-01  3.622298897E-02  8.019742212E+04  2.825522211E+02  3.289055732E+02  2.693934427E+02  2.807082295E+02  3.672618918E-01 
        34  2.916313541E-02  1.180056499E-01  3.893937175E-02  7.991242944E+04  2.905344672E+02  3.287178910E+02  2.690860046E+02  2.827645053E+02  3.347912778E-01 
        35  3.031249539E-02  1.184785399E-01  4.167042727E-02  8.003548343E+04  2.967845823E+02  3.287971389E+02  2.692157938E+02  2.833161792E+02  3.056626217E-01 
        36  3.139929926E-02  1.189405785E-01  4.442941843E-02  8.026824335E+04  3.020771883E+02  3.289842118E+02  2.695219092E+02  2.831955485E+02  2.789862446E-01 
        37  3.242013936E-02  1.193808800E-01  4.721660669E-02  8.077580200E+04  3.071011391E+02  3.292783663E+02  2.700041219E+02  2.825587894E+02  2.514390073E-01 
        38  3.340677803E-02  1.198011670E-01  5.002067675E-02  8.206297775E+04  3.096421421E+02  3.300275120E+02  2.712348081E+02  2.789989834E+02  2.253190193E-01 
        39  3.430413654E-02  1.201853153E-01  5.285529857E-02  8.380304419E+04  3.106665916E+02  3.310368338E+02  2.728968458E+02  2.738260880E+02  2.007770026E-01 
        40  3.515433510E-02  1.205874318E-01  5.570324370E-02  8.593531494E+04  3.105121174E+02  3.321948566E+02  2.748099365E+02  2.674619617E+02  1.779452646E-01 
        41  3.592907297E-02  1.209644065E-01  5.857535950E-02  8.831082837E+04  3.089101839E+02  3.334516277E+02  2.768935413E+02  2.601196356E+02  1.592850429E-01 
        42  3.664355424E-02  1.213334730E-01  6.146049591E-02  9.074896436E+04  3.058446813E+02  3.346833529E+02  2.789427242E+02  2.523219314E+02  1.473184919E-01 
        43  3.727845098E-02  1.217084379E-01  6.437276718E-02  9.299322510E+04  3.020359325E+02  3.357712440E+02  2.807583084E+02  2.451079817E+02  1.425137338E-01 
        44  3.781448665E-02  1.220744111E-01  6.730672953E-02  9.478118018E+04  2.983954735E+02  3.366690350E+02  2.822610226E+02  2.394147000E+02  1.435154676E-01 
        45  3.826762164E-02  1.224563704E-01  7.025293559E-02  9.598040979E+04  2.956811197E+02  3.373248787E+02  2.833613708E+02  2.357050878E+02  1.475802284E-01 
        46  3.856443464E-02  1.228195695E-01  7.317567491E-02  9.662866016E+04  2.937822800E+02  3.378037415E+02  2.841668320E+02  2.335336761E+02  1.530870758E-01 
        47  3.882754171E-02  1.231963568E-01  7.616928387E-02  9.686845834E+04  2.919995918E+02  3.384749258E+02  2.852985053E+02  2.315581203E+02  1.591997336E-01 
        48  3.896508106E-02  1.235573809E-01  7.913505459E-02  9.683191211E+04  2.882064819E+02  3.395414886E+02  2.871134109E+02  2.252700195E+02  1.633934677E-01 
        49  3.903512947E-02  1.239238609E-01  8.213137167E-02  9.665543066E+04  2.779972529E+02  3.416743553E+02  2.907585270E+02  2.077262330E+02  1.747024248E-01 
        50  3.900153017E-02  1.243001337E-01  8.510504302E-02  9.633849960E+04  2.617411728E+02  3.449286391E+02  2.963333223E+02  1.765651830E+02  1.789292034E-01 
        51  3.889299026E-02  1.246700891E-01  8.806950082E-02  9.594589117E+04  2.440449436E+02  3.485734575E+02  3.026231341E+02  1.312509954E+02  1.675083478E-01 
        52  3.870303970E-02  1.250405990E-01  9.105247242E-02  9.589376538E+04  2.378752236E+02  3.509079714E+02  3.066618471E+02  9.008592069E+01  1.996681804E-02 
        53  3.847530202E-02  1.253810613E-01  9.402032493E-02  9.633827136E+04  2.397515432E+02  3.519935479E+02  3.085573480E+02  5.534910329E+01 -5.453845509E-01 
        54  3.809583015E-02  1.257752167E-01  9.695318516E-02  9.771864063E+04  2.376544380E+02  3.531843948E+02  3.106385765E+02  3.963295555E+01 -1.601258218E+00 
        55  3.767199372E-02  1.261489404E-01  9.992435767E-02  9.850283887E+04  2.449831510E+02  3.525311308E+02  3.094881039E+02  4.635432386E+01 -1.516824793E+00 
        56  3.723780727E-02  1.265196365E-01  1.028569506E-01  9.987991650E+04  2.461201287E+02  3.510290836E+02  3.068553163E+02  6.639870225E+01 -1.082107401E+00 
        57  3.672955052E-02  1.269046997E-01  1.057947981E-01  1.021902889E+05  2.323430352E+02  3.497095819E+02  3.045531244E+02  1.042477703E+02  7.713365584E-02 
        58  3.615520807E-02  1.273091289E-01  1.087154776E-01  1.051679368E+05  2.291998777E+02  3.477001562E+02  3.010679817E+02  1.462596416E+02  3.065849002E-01 
        59  3.556812424E-02  1.277144368E-01  1.116309472E-01  1.074224870E+05  2.414813094E+02  3.457424119E+02  2.976860189E+02  1.742766943E+02  2.878368059E-01 
        60  3.495651588E-02  1.281329458E-01  1.145394580E-01  1.079499294E+05  2.575833120E+02  3.442739387E+02  2.951599717E+02  1.886266809E+02  2.291285051E-01 
        61  3.433795015E-02  1.285471243E-01  1.174457346E-01  1.078947772E+05  2.666557627E+02  3.433629909E+02  2.935972214E+02  1.957326772E+02  1.982936205E-01 
        62  3.376061330E-02  1.289460490E-01  1.203607660E-01  1.080332858E+05  2.679549801E+02  3.431271708E+02  2.931932850E+02  1.961758351E+02  1.933520276E-01 
        63  3.331803132E-02  1.293309423E-01  1.232882868E-01  1.082289022E+05  2.668512682E+02  3.431959343E+02  2.933105197E+02  1.943899332E+02  1.955974243E-01 
        64  3.310586596E-02  1.296649637E-01  1.262581306E-01  1.082541964E+05  2.683998165E+02  3.430572319E+02  2.930735061E+02  1.969390260E+02  1.966832548E-01 
        65  3.306639982E-02  1.299493947E-01  1.292495641E-01  1.081247537E+05  2.709697480E+02  3.428985320E+02  2.928023079E+02  1.997386453E+02  1.925600987E-01 
        66  3.322486525E-02  1.302097713E-01  1.322380794E-01  1.078800541E+05  2.727909145E+02  3.428667494E+02  2.927480116E+02  2.015374269E+02  1.899086160E-01 
        67  3.356462385E-02  1.304573038E-01  1.352130229E-01  1.075977877E+05  2.743825472E+02  3.428254775E+02  2.926775661E+02  2.033514647E+02  1.890645977E-01 
        68  3.400410102E-02  1.306751199E-01  1.381765647E-01  1.073172024E+05  2.760421689E+02  3.427186680E+02  2.924952047E+02  2.053446186E+02  1.883136935E-01 
        69  3.451963359E-02  1.308741206E-01  1.411278790E-01  1.070484674E+05  2.774156718E+02  3.426063614E+02  2.923034506E+02  2.072348757E+02  1.889922901E-01 
        70  3.508991352E-02  1.310576265E-01  1.440660380E-01  1.067266479E+05  2.786362195E+02  3.424866691E+02  2.920992138E+02  2.090978873E+02  1.905428304E-01 
        71  3.570211579E-02  1.312503676E-01  1.470000000E-01  1.062999619E+05  2.800648422E+02  3.423166122E+02  2.918078117E+02  2.112378826E+02  1.916008666E-01 
        72 -2.843361623E-02  1.708417341E-01 -4.258217492E-02  8.204289355E+04  1.837496181E+02  3.299710398E+02  2.711408062E+02  3.440458899E+02  1.007368606E+00 
        73 -2.838826984E-02  1.709653765E-01 -3.916427879E-02  8.212499335E+04  1.841023536E+02  3.300081396E+02  2.712018936E+02  3.447613916E+02  1.007633828E+00 
        74 -2.835908450E-02  1.711140563E-01 -3.574649433E-02  8.240908081E+04  1.837605810E+02  3.301784091E+02  2.714818153E+02  3.434641807E+02  1.006621894E+00 
        75 -2.838361088E-02  1.712589164E-01 -3.232950605E-02  8.284380933E+04  1.831521735E+02  3.304304562E+02  2.718966351E+02  3.430455809E+02  1.007938255E+00 
        76 -2.841360827E-02  1.714319125E-01 -2.891476756E-02  8.343434070E+04  1.820815344E+02  3.307612495E+02  2.724412546E+02  3.415883155E+02  1.008920221E+00 
        77 -2.833774301E-02  1.716334782E-01 -2.549995819E-02  8.385243872E+04  1.811523288E+02  3.310416349E+02  2.729030809E+02  3.394376292E+02  1.008275975E+00 
        78 -2.791452343E-02  1.719215161E-01 -2.212016887E-02  8.424600537E+04  1.802805605E+02  3.312507057E+02  2.732478189E+02  3.397820168E+02  1.011894234E+00 
        79 -2.700703325E-02  1.722886754E-01 -1.884820631E-02  8.429072876E+04  1.805678124E+02  3.311340809E+02  2.730557795E+02  3.400293818E+02  1.011464231E+00 
        80 -2.544395246E-02  1.727209334E-01 -1.584518523E-02  8.333267822E+04  1.809941313E+02  3.307086618E+02  2.723550222E+02  3.435927923E+02  1.016231377E+00 
        81 -2.351536464E-02  1.732363399E-01 -1.306823492E-02  8.137364209E+04  1.840657311E+02  3.296135885E+02  2.705541512E+02  3.479901949E+02  1.013641415E+00 
        82 -2.134527601E-02  1.737374909E-01 -1.047435973E-02  7.873802319E+04  1.908395491E+02  3.280616802E+02  2.680130059E+02  3.554900043E+02  1.004652012E+00 
        83 -1.897326710E-02  1.742189522E-01 -8.035177519E-03  7.572627884E+04  1.990507705E+02  3.261528885E+02  2.649042009E+02  3.634484755E+02  9.922464085E-01 
        84 -1.652827274E-02  1.746780172E-01 -5.688541800E-03  7.345099292E+04  2.057405291E+02  3.248147588E+02  2.627345262E+02  3.708613067E+02  9.847265519E-01 
        85 -1.397929867E-02  1.751251779E-01 -3.446989688E-03  7.261729614E+04  2.103864517E+02  3.241776271E+02  2.617048950E+02  3.741057677E+02  9.759008810E-01 
        86 -1.139011487E-02  1.755573757E-01 -1.256774906E-03  7.341818494E+04  2.102244787E+02  3.248324037E+02  2.627640524E+02  3.719620748E+02  9.715647195E-01 
        87 -8.734274343E-03  1.759085237E-01  8.667805443E-04  7.842575287E+04  2.041998010E+02  3.278249557E+02  2.676344712E+02  3.582062356E+02  9.651691969E-01 
        88 -6.073383534E-03  1.762548475E-01  2.984781313E-03  8.825924231E+04  1.909342053E+02  3.333129690E+02  2.766700143E+02  3.316828918E+02  9.651948754E-01 
        89 -3.359730182E-03  1.765819110E-01  5.053045394E-03  9.822390576E+04  1.763067364E+02  3.382446740E+02  2.849112308E+02  3.054902642E+02  9.803104410E-01 
        90 -6.741955509E-04  1.768270807E-01  7.130208361E-03  9.661758511E+04  1.653585158E+02  3.378003532E+02  2.841650160E+02  3.077383596E+02  1.022221462E+00 
        91  2.027043660E-03  1.770783858E-01  9.208570588E-03  7.852878571E+04  1.949872415E+02  3.277438068E+02  2.674992785E+02  3.586143335E+02  9.971761350E-01 
        92  4.731686997E-03  1.772422585E-01  1.127155269E-02  7.316118753E+04  2.146676644E+02  3.246308186E+02  2.624395676E+02  3.787163543E+02  9.704327259E-01 
        93  7.454465044E-03  1.773874983E-01  1.334309669E-02  7.359747134E+04  2.121951005E+02  3.246322160E+02  2.624429678E+02  3.755362133E+02  9.723226237E-01 
        94  1.015989937E-02  1.775222933E-01  1.545596277E-02  7.088261472E+04  2.188015149E+02  3.230026305E+02  2.598163279E+02  3.824130226E+02  9.641315602E-01 
        95  1.284858280E-02  1.775661421E-01  1.756817794E-02  6.742549051E+04  2.281807760E+02  3.208134298E+02  2.563081303E+02  3.914792702E+02  9.522026484E-01 
        96  1.551966693E-02  1.776138061E-01  1.970369132E-02  6.428766650E+04  2.377995193E+02  3.186033149E+02  2.527892654E+02  4.015733829E+02  9.424289484E-01 
        97  1.817410325E-02  1.776258069E-01  2.186017323E-02  6.171303174E+04  2.455879915E+02  3.169193754E+02  2.501217308E+02  4.086580505E+02  9.324189415E-01 
        98  2.080993586E-02  1.775631240E-01  2.403936301E-02  5.984115479E+04  2.535957026E+02  3.155294986E+02  2.479324660E+02  4.144127178E+02  9.190488309E-01 
        99  2.341570779E-02  1.774969016E-01  2.625394818E-02  5.930709607E+04  2.586813164E+02  3.152345209E+02  2.474701591E+02  4.161326799E+02  9.059763644E-01 
       100  2.600295182E-02  1.773818036E-01  2.848806157E-02  6.111805420E+04  2.607759695E+02  3.165281124E+02  2.495206718E+02  4.121360903E+02  8.902291395E-01 
       101  2.856627515E-02  1.771883875E-01  3.074502562E-02  6.659223535E+04  2.567496386E+02  3.202774229E+02  2.555174522E+02  3.966429062E+02  8.707607687E-01 
       102  3.110662233E-02  1.769811535E-01  3.302644514E-02  7.491075439E+04  2.469815092E+02  3.259717712E+02  2.646804848E+02  3.707974463E+02  8.495305870E-01 
       103  3.362247542E-02  1.767159818E-01  3.532849163E-02  8.169582397E+04  2.426694508E+02  3.300965347E+02  2.713685818E+02  3.515737276E+02  8.260518406E-01 
       104  3.610895472E-02  1.763647845E-01  3.765120331E-02  8.317213611E+04  2.474483814E+02  3.306361256E+02  2.722425418E+02  3.493814583E+02  8.059249902E-01 
       105  3.856497337E-02  1.759966372E-01  4.000321012E-02  8.071579807E+04  2.557395047E+02  3.292980633E+02  2.700406244E+02  3.562984359E+02  7.904045526E-01 
       106  4.103059304E-02  1.755360248E-01  4.234569910E-02  7.845136995E+04  2.624737309E+02  3.283791055E+02  2.685325481E+02  3.609236245E+02  7.759743117E-01 
       107  4.340106546E-02  1.750377176E-01  4.474435622E-02  7.876747238E+04  2.658661119E+02  3.287970774E+02  2.692184799E+02  3.591449636E+02  7.613795381E-01 
       108  4.575540032E-02  1.745445103E-01  4.717695363E-02  8.224031079E+04  2.658941095E+02  3.306930022E+02  2.723372083E+02  3.509504366E+02  7.460504016E-01 
       109  4.807037784E-02  1.739953488E-01  4.963532790E-02  8.842388281E+04  2.620866127E+02  3.338215437E+02  2.775192871E+02  3.358685713E+02  7.320421338E-01 
       110  5.034733117E-02  1.734133857E-01  5.212084081E-02  9.479286426E+04  2.582089043E+02  3.369984207E+02  2.828212547E+02  3.193807430E+02  7.175178863E-01 
       111  5.258765486E-02  1.728405975E-01  5.464144749E-02  9.917169531E+04  2.576526012E+02  3.391759014E+02  2.864821835E+02  3.070415115E+02  6.996384896E-01 
       112  5.479076840E-02  1.722430532E-01  5.718902978E-02  1.019720833E+05  2.580495920E+02  3.406030407E+02  2.888967609E+02  2.993951092E+02  6.865021363E-01 
       113  5.694737683E-02  1.716020731E-01  5.976586917E-02  1.048632278E+05  2.568688035E+02  3.420833435E+02  2.914135857E+02  2.917518878E+02  6.796871647E-01 
       114  5.911848447E-02  1.709340834E-01  6.233872565E-02  1.081428534E+05  2.554639835E+02  3.435913984E+02  2.939874229E+02  2.828421162E+02  6.721695455E-01 
       115  6.119351897E-02  1.703313828E-01  6.496775561E-02  1.110136243E+05  2.540718913E+02  3.448189592E+02  2.960921760E+02  2.756639280E+02  6.681394819E-01 
       116  6.319798910E-02  1.696485115E-01  6.765543605E-02  1.134234043E+05  2.531902966E+02  3.458381672E+02  2.978445830E+02  2.700583448E+02  6.642899979E-01 
       117  6.520189851E-02  1.689621155E-01  7.034628384E-02  1.156046733E+05  2.522002611E+02  3.467783251E+02  2.994661417E+02  2.639371443E+02  6.609322149E-01 
       118  6.717992039E-02  1.682884043E-01  7.305807409E-02  1.172586719E+05  2.511481647E+02  3.474396667E+02  3.006092758E+02  2.594183931E+02  6.601781882E-01 
       119  6.910755662E-02  1.675987334E-01  7.579818779E-02  1.186052273E+05  2.495834079E+02  3.478731906E+02  3.013597219E+02  2.566850641E+02  6.637959662E-01 
       120  7.101404689E-02  1.668389198E-01  7.852135391E-02  1.196716600E+05  2.464272474E+02  3.483555956E+02  3.021962516E+02  2.541909926E+02  6.738181566E-01 
