nodenumber     x-coordinate     y-coordinate     z-coordinate         pressure velocity-magnitude      sound-speed      temperature rel-velocity-magnitude relative-velocity-angle 
         1 -2.216901913E-02  1.039879580E-01 -4.300600202E-02  8.758207852E+04  1.537625364E+02  3.330618827E+02  2.762439702E+02  2.357705767E+02  8.604514085E-01 
         2 -2.197401757E-02  1.042260031E-01 -4.002397295E-02  8.746012622E+04  1.544665745E+02  3.329938812E+02  2.761311427E+02  2.364170686E+02  8.590401735E-01 
         3 -2.150271627E-02  1.045375264E-01 -3.708169353E-02  8.736046136E+04  1.550832134E+02  3.329418044E+02  2.760448005E+02  2.370396259E+02  8.581219492E-01 
         4 -2.072290556E-02  1.049359494E-01 -3.421635317E-02  8.726358679E+04  1.556646986E+02  3.328981137E+02  2.759723411E+02  2.377152946E+02  8.576846309E-01 
         5 -1.964621854E-02  1.053757771E-01 -3.145501365E-02  8.715615820E+04  1.563349166E+02  3.328429298E+02  2.758809371E+02  2.383856802E+02  8.568498679E-01 
         6 -1.833909717E-02  1.058829391E-01 -2.880182754E-02  8.700770874E+04  1.571036277E+02  3.327652473E+02  2.757522464E+02  2.392654238E+02  8.562059570E-01 
         7 -1.686396899E-02  1.064019756E-01 -2.624136390E-02  8.681109277E+04  1.579552913E+02  3.326618757E+02  2.755809736E+02  2.403642192E+02  8.559265137E-01 
         8 -1.524276490E-02  1.069101094E-01 -2.376908005E-02  8.659579553E+04  1.589469407E+02  3.325478292E+02  2.753920522E+02  2.415893707E+02  8.553149067E-01 
         9 -1.353040875E-02  1.074492491E-01 -2.136449246E-02  8.632090808E+04  1.603162787E+02  3.323909240E+02  2.751321421E+02  2.429986949E+02  8.533453066E-01 
        10 -1.175719847E-02  1.079385502E-01 -1.899452623E-02  8.608030853E+04  1.618676484E+02  3.322431707E+02  2.748875506E+02  2.441926730E+02  8.497301843E-01 
        11 -9.920451205E-03  1.084473482E-01 -1.667649769E-02  8.602136453E+04  1.628438768E+02  3.322258617E+02  2.748589630E+02  2.447742351E+02  8.471185088E-01 
        12 -8.053093039E-03  1.089314126E-01 -1.437870322E-02  8.620553873E+04  1.633469757E+02  3.323268503E+02  2.750260370E+02  2.445247903E+02  8.439622154E-01 
        13 -6.139911673E-03  1.093816015E-01 -1.211111235E-02  8.671414478E+04  1.626991291E+02  3.326098557E+02  2.754946361E+02  2.432784081E+02  8.436929919E-01 
        14 -4.213714023E-03  1.098625599E-01 -9.853315987E-03  8.753012158E+04  1.604344854E+02  3.330593605E+02  2.762398548E+02  2.404772072E+02  8.470542170E-01 
        15 -2.267252226E-03  1.102821410E-01 -7.616721013E-03  8.858730908E+04  1.564452991E+02  3.336025066E+02  2.771416483E+02  2.370958710E+02  8.580774851E-01 
        16 -3.058463972E-04  1.106716081E-01 -5.380345181E-03  8.945060352E+04  1.497606301E+02  3.340205059E+02  2.778367796E+02  2.342494936E+02  8.861718830E-01 
        17  1.649896870E-03  1.110991589E-01 -3.144821902E-03  8.734939575E+04  1.468075517E+02  3.328819366E+02  2.759471974E+02  2.433032591E+02  9.331962811E-01 
        18  3.605378217E-03  1.114680886E-01 -8.997268064E-04  7.572625720E+04  1.772026610E+02  3.260891504E+02  2.647998676E+02  2.870373516E+02  9.350595679E-01 
        19  5.548952344E-03  1.118349081E-01  1.356589372E-03  6.996781622E+04  2.083790574E+02  3.228524013E+02  2.595713503E+02  3.068155608E+02  8.473426858E-01 
        20  7.472030685E-03  1.121892539E-01  3.633809071E-03  7.293492047E+04  2.127176784E+02  3.247165877E+02  2.625786425E+02  2.988189554E+02  7.902574597E-01 
        21  9.366594022E-03  1.125505666E-01  5.932977735E-03  7.667486096E+04  2.101336592E+02  3.268764162E+02  2.660837822E+02  2.872091637E+02  7.582543730E-01 
        22  1.122147558E-02  1.129077905E-01  8.263617067E-03  7.903134424E+04  2.090893915E+02  3.283234086E+02  2.684432215E+02  2.771982596E+02  7.258407489E-01 
        23  1.303284284E-02  1.132507638E-01  1.062953057E-02  8.049144596E+04  2.117036300E+02  3.291483628E+02  2.697923255E+02  2.725893098E+02  6.961397110E-01 
        24  1.479928419E-02  1.136234762E-01  1.303021626E-02  8.165007231E+04  2.155343339E+02  3.298715740E+02  2.709791077E+02  2.680566160E+02  6.605916033E-01 
        25  1.649617427E-02  1.139938279E-01  1.547769530E-02  8.273395050E+04  2.199141600E+02  3.304812498E+02  2.719813483E+02  2.640087075E+02  6.236908790E-01 
        26  1.811807173E-02  1.143837002E-01  1.797032872E-02  8.346756860E+04  2.254685435E+02  3.308063684E+02  2.725161552E+02  2.626750636E+02  5.905387206E-01 
        27  1.968166241E-02  1.148013513E-01  2.049621310E-02  8.352202588E+04  2.328033211E+02  3.307635601E+02  2.724454551E+02  2.642319391E+02  5.587313869E-01 
        28  2.119101764E-02  1.152299366E-01  2.305322148E-02  8.298549858E+04  2.417009051E+02  3.304457894E+02  2.719220556E+02  2.673221635E+02  5.245279692E-01 
        29  2.266338778E-02  1.156643914E-01  2.563116057E-02  8.239418762E+04  2.505575501E+02  3.301339090E+02  2.714091499E+02  2.696738456E+02  4.877002677E-01 
        30  2.408077791E-02  1.161159634E-01  2.823658064E-02  8.185942297E+04  2.590717671E+02  3.298199129E+02  2.708931344E+02  2.718288383E+02  4.523537513E-01 
        31  2.544088325E-02  1.165921105E-01  3.086849856E-02  8.131837891E+04  2.674289136E+02  3.294510612E+02  2.702878900E+02  2.745822039E+02  4.202456241E-01 
        32  2.674433127E-02  1.170738851E-01  3.352942364E-02  8.076348682E+04  2.753309760E+02  3.291029348E+02  2.697170217E+02  2.774354980E+02  3.911481923E-01 
        33  2.797950643E-02  1.175445507E-01  3.622298897E-02  8.024993680E+04  2.827981195E+02  3.288272400E+02  2.692650127E+02  2.798159139E+02  3.627477831E-01 
        34  2.916313541E-02  1.180056499E-01  3.893937175E-02  7.996391759E+04  2.897811462E+02  3.286838661E+02  2.690299610E+02  2.814428045E+02  3.339569974E-01 
        35  3.031249539E-02  1.184785399E-01  4.167042727E-02  8.007975977E+04  2.955917211E+02  3.287701874E+02  2.691713489E+02  2.821006116E+02  3.074535063E-01 
        36  3.139929926E-02  1.189405785E-01  4.442941843E-02  8.033652905E+04  3.011146221E+02  3.289259430E+02  2.694264972E+02  2.823705770E+02  2.810350471E-01 
        37  3.242013936E-02  1.193808800E-01  4.721660669E-02  8.085688630E+04  3.063849400E+02  3.292118861E+02  2.698950658E+02  2.817934532E+02  2.523832211E-01 
        38  3.340677803E-02  1.198011670E-01  5.002067675E-02  8.206392484E+04  3.091625991E+02  3.299413238E+02  2.710929632E+02  2.784250666E+02  2.257459383E-01 
        39  3.430413654E-02  1.201853153E-01  5.285529857E-02  8.369622412E+04  3.105143290E+02  3.309065723E+02  2.726819763E+02  2.735894880E+02  2.007360710E-01 
        40  3.515433510E-02  1.205874318E-01  5.570324370E-02  8.572181201E+04  3.105593452E+02  3.320547371E+02  2.745781422E+02  2.675517578E+02  1.780787148E-01 
        41  3.592907297E-02  1.209644065E-01  5.857535950E-02  8.805519385E+04  3.090559244E+02  3.333386106E+02  2.767059894E+02  2.603834763E+02  1.595233534E-01 
        42  3.664355424E-02  1.213334730E-01  6.146049591E-02  9.052592578E+04  3.061242867E+02  3.346054492E+02  2.788129487E+02  2.526397109E+02  1.469531697E-01 
        43  3.727845098E-02  1.217084379E-01  6.437276718E-02  9.284925439E+04  3.024356089E+02  3.357417507E+02  2.807091064E+02  2.454082489E+02  1.413295562E-01 
        44  3.781448665E-02  1.220744111E-01  6.730672953E-02  9.472259375E+04  2.987716265E+02  3.366982441E+02  2.823101082E+02  2.396173015E+02  1.420290358E-01 
        45  3.826762164E-02  1.224563704E-01  7.025293559E-02  9.598721985E+04  2.960472572E+02  3.373815000E+02  2.834565415E+02  2.358930717E+02  1.460281373E-01 
        46  3.856443464E-02  1.228195695E-01  7.317567491E-02  9.664964063E+04  2.944860382E+02  3.378075104E+02  2.841730347E+02  2.341616745E+02  1.512396075E-01 
        47  3.882754171E-02  1.231963568E-01  7.616928387E-02  9.687072061E+04  2.930868902E+02  3.384103326E+02  2.851895367E+02  2.325337636E+02  1.563861176E-01 
        48  3.896508106E-02  1.235573809E-01  7.913505459E-02  9.679311523E+04  2.895735283E+02  3.394058151E+02  2.868815613E+02  2.269432945E+02  1.608383581E-01 
        49  3.903512947E-02  1.239238609E-01  8.213137167E-02  9.662858630E+04  2.811606250E+02  3.412128048E+02  2.899668574E+02  2.117079668E+02  1.656622156E-01 
        50  3.900153017E-02  1.243001337E-01  8.510504302E-02  9.643713586E+04  2.658977515E+02  3.442339200E+02  2.951382268E+02  1.835469786E+02  1.708643733E-01 
        51  3.889299026E-02  1.246700891E-01  8.806950082E-02  9.629223108E+04  2.485037544E+02  3.478393219E+02  3.013528504E+02  1.385636978E+02  1.450394761E-01 
        52  3.870303970E-02  1.250405990E-01  9.105247242E-02  9.665459106E+04  2.411849504E+02  3.506419778E+02  3.061998672E+02  9.509724867E+01 -1.890947402E-02 
        53  3.847530202E-02  1.253810613E-01  9.402032493E-02  9.732273254E+04  2.360135632E+02  3.529153054E+02  3.101746895E+02  5.624799122E+01 -3.092159399E-01 
        54  3.809583015E-02  1.257752167E-01  9.695318516E-02  9.775960645E+04  2.299967766E+02  3.536827393E+02  3.115141640E+02  3.535838079E+01 -1.554842263E+00 
        55  3.767199372E-02  1.261489404E-01  9.992435767E-02  9.869448120E+04  2.396112289E+02  3.526470861E+02  3.096913781E+02  4.203918397E+01 -1.488610744E+00 
        56  3.723780727E-02  1.265196365E-01  1.028569506E-01  1.011234981E+05  2.447841533E+02  3.515555739E+02  3.077786704E+02  5.672916034E+01 -1.154819038E+00 
        57  3.672955052E-02  1.269046997E-01  1.057947981E-01  1.040540349E+05  2.447937462E+02  3.507526107E+02  3.063749752E+02  9.250598073E+01 -2.742792172E-01 
        58  3.615520807E-02  1.273091289E-01  1.087154776E-01  1.058532119E+05  2.519694104E+02  3.489661884E+02  3.032646570E+02  1.405083637E+02  6.176283373E-02 
        59  3.556812424E-02  1.277144368E-01  1.116309472E-01  1.066356177E+05  2.586943839E+02  3.462461042E+02  2.985541220E+02  1.796081649E+02  1.918384836E-01 
        60  3.495651588E-02  1.281329458E-01  1.145394580E-01  1.073767131E+05  2.620627360E+02  3.440813150E+02  2.948274593E+02  1.937804880E+02  2.195699741E-01 
        61  3.433795015E-02  1.285471243E-01  1.174457346E-01  1.079638986E+05  2.615195935E+02  3.434948030E+02  2.938215871E+02  1.911494417E+02  2.144170613E-01 
        62  3.376061330E-02  1.289460490E-01  1.203607660E-01  1.082686570E+05  2.629242582E+02  3.434718335E+02  2.937821627E+02  1.905579531E+02  2.048152378E-01 
        63  3.331803132E-02  1.293309423E-01  1.232882868E-01  1.083402630E+05  2.667966713E+02  3.433509994E+02  2.935755213E+02  1.943796606E+02  1.957578872E-01 
        64  3.310586596E-02  1.296649637E-01  1.262581306E-01  1.082450283E+05  2.705079350E+02  3.431654563E+02  2.932583313E+02  1.984246876E+02  1.889331428E-01 
        65  3.306639982E-02  1.299493947E-01  1.292495641E-01  1.080498336E+05  2.729475236E+02  3.430315771E+02  2.930294189E+02  2.014484893E+02  1.865707198E-01 
        66  3.322486525E-02  1.302097713E-01  1.322380794E-01  1.077969078E+05  2.743105748E+02  3.429426624E+02  2.928775385E+02  2.030615090E+02  1.860476864E-01 
        67  3.356462385E-02  1.304573038E-01  1.352130229E-01  1.075264473E+05  2.752836481E+02  3.428777147E+02  2.927666084E+02  2.043325151E+02  1.870117548E-01 
        68  3.400410102E-02  1.306751199E-01  1.381765647E-01  1.072429304E+05  2.763474448E+02  3.427849989E+02  2.926083679E+02  2.055515463E+02  1.871417181E-01 
        69  3.451963359E-02  1.308741206E-01  1.411278790E-01  1.069442542E+05  2.775313544E+02  3.426718063E+02  2.924151032E+02  2.069392569E+02  1.871992578E-01 
        70  3.508991352E-02  1.310576265E-01  1.440660380E-01  1.066459364E+05  2.786974251E+02  3.425497885E+02  2.922068784E+02  2.084669816E+02  1.878955779E-01 
        71  3.570211579E-02  1.312503676E-01  1.470000000E-01  1.063111719E+05  2.799471664E+02  3.424130516E+02  2.919733543E+02  2.103482895E+02  1.890942212E-01 
        72 -2.843361623E-02  1.708417341E-01 -4.258217492E-02  8.205654639E+04  1.837891865E+02  3.299810247E+02  2.711570950E+02  3.446062918E+02  1.008227162E+00 
        73 -2.838826984E-02  1.709653765E-01 -3.916427879E-02  8.208076117E+04  1.842093134E+02  3.299675884E+02  2.711353042E+02  3.447247581E+02  1.007078497E+00 
        74 -2.835908450E-02  1.711140563E-01 -3.574649433E-02  8.236278674E+04  1.837192979E+02  3.301478903E+02  2.714318261E+02  3.433255324E+02  1.006355740E+00 
        75 -2.838361088E-02  1.712589164E-01 -3.232950605E-02  8.284708960E+04  1.829888358E+02  3.304500561E+02  2.719290085E+02  3.427052937E+02  1.007712603E+00 
        76 -2.841360827E-02  1.714319125E-01 -2.891476756E-02  8.346456909E+04  1.824447513E+02  3.307558889E+02  2.724325829E+02  3.415124722E+02  1.007571729E+00 
        77 -2.833774301E-02  1.716334782E-01 -2.549995819E-02  8.409509143E+04  1.804919841E+02  3.311852821E+02  2.731401505E+02  3.389679146E+02  1.009824319E+00 
        78 -2.791452343E-02  1.719215161E-01 -2.212016887E-02  8.441084766E+04  1.801394472E+02  3.312959461E+02  2.733224583E+02  3.391937599E+02  1.011348773E+00 
        79 -2.700703325E-02  1.722886754E-01 -1.884820631E-02  8.426292261E+04  1.797043085E+02  3.312072659E+02  2.731761408E+02  3.403050613E+02  1.014779266E+00 
        80 -2.544395246E-02  1.727209334E-01 -1.584518523E-02  8.323088885E+04  1.816705161E+02  3.305848913E+02  2.721508272E+02  3.423519034E+02  1.011669218E+00 
        81 -2.351536464E-02  1.732363399E-01 -1.306823492E-02  8.133144695E+04  1.843976361E+02  3.296020183E+02  2.705352060E+02  3.489493206E+02  1.014253901E+00 
        82 -2.134527601E-02  1.737374909E-01 -1.047435973E-02  7.865978844E+04  1.911220427E+02  3.279770111E+02  2.678752812E+02  3.555966742E+02  1.003924052E+00 
        83 -1.897326710E-02  1.742189522E-01 -8.035177519E-03  7.561517209E+04  1.985744612E+02  3.261925657E+02  2.649682275E+02  3.646728597E+02  9.963143491E-01 
        84 -1.652827274E-02  1.746780172E-01 -5.688541800E-03  7.342554852E+04  2.054200199E+02  3.248373923E+02  2.627703440E+02  3.712752604E+02  9.863614263E-01 
        85 -1.397929867E-02  1.751251779E-01 -3.446989688E-03  7.262809753E+04  2.104404597E+02  3.242024269E+02  2.617445283E+02  3.737398286E+02  9.744701628E-01 
        86 -1.139011487E-02  1.755573757E-01 -1.256774906E-03  7.359031567E+04  2.107690387E+02  3.248575306E+02  2.628047428E+02  3.718031096E+02  9.695732202E-01 
        87 -8.734274343E-03  1.759085237E-01  8.667805443E-04  7.877400714E+04  2.043607327E+02  3.280151215E+02  2.679437580E+02  3.579278038E+02  9.642412178E-01 
        88 -6.073383534E-03  1.762548475E-01  2.984781313E-03  8.841615344E+04  1.902033252E+02  3.334222205E+02  2.768517616E+02  3.325983632E+02  9.685864868E-01 
        89 -3.359730182E-03  1.765819110E-01  5.053045394E-03  9.833256317E+04  1.758658341E+02  3.383992457E+02  2.851735122E+02  3.053944125E+02  9.813896543E-01 
        90 -6.741955509E-04  1.768270807E-01  7.130208361E-03  9.792712756E+04  1.654186285E+02  3.380418637E+02  2.845693244E+02  3.100916853E+02  1.023000551E+00 
        91  2.027043660E-03  1.770783858E-01  9.208570588E-03  7.892141598E+04  1.914948253E+02  3.280920008E+02  2.680707533E+02  3.558525916E+02  1.003935727E+00 
        92  4.731686997E-03  1.772422585E-01  1.127155269E-02  7.276654791E+04  2.145293147E+02  3.242697306E+02  2.618554777E+02  3.768610084E+02  9.668062346E-01 
        93  7.454465044E-03  1.773874983E-01  1.334309669E-02  7.338690057E+04  2.101490456E+02  3.246827435E+02  2.625209684E+02  3.732076638E+02  9.739635997E-01 
        94  1.015989937E-02  1.775222933E-01  1.545596277E-02  7.080557853E+04  2.174545569E+02  3.230008320E+02  2.598134502E+02  3.811922754E+02  9.660809342E-01 
        95  1.284858280E-02  1.775661421E-01  1.756817794E-02  6.735692484E+04  2.278216268E+02  3.208069412E+02  2.562963905E+02  3.916820540E+02  9.536817661E-01 
        96  1.551966693E-02  1.776138061E-01  1.970369132E-02  6.433932507E+04  2.371987102E+02  3.187318554E+02  2.529927080E+02  4.016140008E+02  9.443039168E-01 
        97  1.817410325E-02  1.776258069E-01  2.186017323E-02  6.176041833E+04  2.458116984E+02  3.169067822E+02  2.501025362E+02  4.089931631E+02  9.324208591E-01 
        98  2.080993586E-02  1.775631240E-01  2.403936301E-02  5.992934424E+04  2.537730331E+02  3.155666509E+02  2.479896507E+02  4.143601675E+02  9.181393050E-01 
        99  2.341570779E-02  1.774969016E-01  2.625394818E-02  5.953549475E+04  2.582744656E+02  3.153800688E+02  2.476968775E+02  4.156349411E+02  9.057597052E-01 
       100  2.600295182E-02  1.773818036E-01  2.848806157E-02  6.137234473E+04  2.586550665E+02  3.168554869E+02  2.500343494E+02  4.090680923E+02  8.897060119E-01 
       101  2.856627515E-02  1.771883875E-01  3.074502562E-02  6.674371265E+04  2.534900532E+02  3.207408609E+02  2.562490940E+02  3.926162663E+02  8.719207086E-01 
       102  3.110662233E-02  1.769811535E-01  3.302644514E-02  7.494370728E+04  2.447757797E+02  3.262777033E+02  2.651735106E+02  3.683340397E+02  8.516531512E-01 
       103  3.362247542E-02  1.767159818E-01  3.532849163E-02  8.166436304E+04  2.417065697E+02  3.302736320E+02  2.716614857E+02  3.503045568E+02  8.268778417E-01 
       104  3.610895472E-02  1.763647845E-01  3.765120331E-02  8.314371753E+04  2.471947687E+02  3.308052888E+02  2.725214210E+02  3.490604763E+02  8.059443608E-01 
       105  3.856497337E-02  1.759966372E-01  4.000321012E-02  8.066689914E+04  2.568696833E+02  3.292639970E+02  2.699860735E+02  3.573873085E+02  7.885236084E-01 
       106  4.103059304E-02  1.755360248E-01  4.234569910E-02  7.838989894E+04  2.643286248E+02  3.281313440E+02  2.681268331E+02  3.631140022E+02  7.737769760E-01 
       107  4.340106546E-02  1.750377176E-01  4.474435622E-02  7.900784808E+04  2.671578566E+02  3.286295355E+02  2.689433523E+02  3.613906683E+02  7.609652684E-01 
       108  4.575540032E-02  1.745445103E-01  4.717695363E-02  8.279723608E+04  2.665531638E+02  3.307561631E+02  2.724418862E+02  3.514926782E+02  7.445827601E-01 
       109  4.807037784E-02  1.739953488E-01  4.963532790E-02  8.886573071E+04  2.617680330E+02  3.340901880E+02  2.779661140E+02  3.350713091E+02  7.315776162E-01 
       110  5.034733117E-02  1.734133857E-01  5.212084081E-02  9.482220654E+04  2.574986038E+02  3.372019939E+02  2.831616478E+02  3.188604965E+02  7.190404013E-01 
       111  5.258765486E-02  1.728405975E-01  5.464144749E-02  9.891827490E+04  2.572501774E+02  3.391695061E+02  2.864706936E+02  3.077271538E+02  7.019607387E-01 
       112  5.479076840E-02  1.722430532E-01  5.718902978E-02  1.018507866E+05  2.576984777E+02  3.405555887E+02  2.888162746E+02  3.006346159E+02  6.894455776E-01 
       113  5.694737683E-02  1.716020731E-01  5.976586917E-02  1.049382105E+05  2.565776610E+02  3.420445044E+02  2.913471336E+02  2.925048444E+02  6.817404660E-01 
       114  5.911848447E-02  1.709340834E-01  6.233872565E-02  1.082633743E+05  2.552544761E+02  3.435493051E+02  2.939153243E+02  2.830211391E+02  6.731275388E-01 
       115  6.119351897E-02  1.703313828E-01  6.496775561E-02  1.109354182E+05  2.543764834E+02  3.446589832E+02  2.958172626E+02  2.759876790E+02  6.674166322E-01 
       116  6.319798910E-02  1.696485115E-01  6.765543605E-02  1.130892223E+05  2.533184109E+02  3.455285783E+02  2.973116059E+02  2.701217957E+02  6.639676783E-01 
       117  6.520189851E-02  1.689621155E-01  7.034628384E-02  1.151443555E+05  2.521215572E+02  3.463510828E+02  2.987286596E+02  2.643713322E+02  6.617555283E-01 
       118  6.717992039E-02  1.682884043E-01  7.305807409E-02  1.170817349E+05  2.503220253E+02  3.472100782E+02  3.002119055E+02  2.609102278E+02  6.652013846E-01 
       119  6.910755662E-02  1.675987334E-01  7.579818779E-02  1.185152772E+05  2.502657249E+02  3.477534819E+02  3.011523318E+02  2.583783939E+02  6.629122584E-01 
       120  7.101404689E-02  1.668389198E-01  7.852135391E-02  1.195910029E+05  2.478320947E+02  3.483134997E+02  3.021230247E+02  2.554820988E+02  6.695099692E-01 
