nodenumber     x-coordinate     y-coordinate     z-coordinate         pressure velocity-magnitude      sound-speed      temperature rel-velocity-magnitude relative-velocity-angle 
         1 -2.216901913E-02  1.039879580E-01 -4.300600202E-02  8.756573486E+04  1.536147929E+02  3.330817882E+02  2.762770248E+02  2.354392842E+02  8.600867770E-01 
         2 -2.197401757E-02  1.042260031E-01 -4.002397295E-02  8.748739941E+04  1.545459595E+02  3.330020642E+02  2.761447501E+02  2.365113885E+02  8.589583873E-01 
         3 -2.150271627E-02  1.045375264E-01 -3.708169353E-02  8.739601978E+04  1.550800300E+02  3.329586077E+02  2.760726285E+02  2.370166972E+02  8.580600698E-01 
         4 -2.072290556E-02  1.049359494E-01 -3.421635317E-02  8.725787878E+04  1.556339595E+02  3.329025507E+02  2.759797077E+02  2.376201587E+02  8.575727791E-01 
         5 -1.964621854E-02  1.053757771E-01 -3.145501365E-02  8.711262744E+04  1.564321022E+02  3.328225145E+02  2.758471251E+02  2.385240197E+02  8.568513151E-01 
         6 -1.833909717E-02  1.058829391E-01 -2.880182754E-02  8.695247095E+04  1.571551590E+02  3.327386599E+02  2.757081847E+02  2.392419600E+02  8.559174333E-01 
         7 -1.686396899E-02  1.064019756E-01 -2.624136390E-02  8.679976685E+04  1.581287136E+02  3.326447945E+02  2.755525866E+02  2.404594350E+02  8.553548474E-01 
         8 -1.524276490E-02  1.069101094E-01 -2.376908005E-02  8.659245435E+04  1.589843605E+02  3.325382414E+02  2.753760586E+02  2.415542164E+02  8.549417872E-01 
         9 -1.353040875E-02  1.074492491E-01 -2.136449246E-02  8.635452429E+04  1.601795094E+02  3.324119411E+02  2.751669371E+02  2.429070525E+02  8.537319442E-01 
        10 -1.175719847E-02  1.079385502E-01 -1.899452623E-02  8.611309235E+04  1.616608491E+02  3.322761509E+02  2.749421554E+02  2.442186046E+02  8.509271964E-01 
        11 -9.920451205E-03  1.084473482E-01 -1.667649769E-02  8.602023920E+04  1.628773732E+02  3.322156905E+02  2.748421016E+02  2.447244825E+02  8.466356497E-01 
        12 -8.053093039E-03  1.089314126E-01 -1.437870322E-02  8.621358020E+04  1.630782108E+02  3.323514726E+02  2.750667758E+02  2.444401019E+02  8.451995645E-01 
        13 -6.139911673E-03  1.093816015E-01 -1.211111235E-02  8.669474805E+04  1.625627055E+02  3.326067247E+02  2.754895201E+02  2.430752635E+02  8.438702524E-01 
        14 -4.213714023E-03  1.098625599E-01 -9.853315987E-03  8.747740332E+04  1.607231541E+02  3.330052109E+02  2.761501751E+02  2.406238804E+02  8.460603729E-01 
        15 -2.267252226E-03  1.102821410E-01 -7.616721013E-03  8.849177148E+04  1.566828156E+02  3.335426102E+02  2.770421963E+02  2.374345903E+02  8.579036333E-01 
        16 -3.058463972E-04  1.106716081E-01 -5.380345181E-03  8.946175610E+04  1.495914121E+02  3.340412388E+02  2.778712931E+02  2.339227443E+02  8.861567676E-01 
        17  1.649896870E-03  1.110991589E-01 -3.144821902E-03  8.720137866E+04  1.466568148E+02  3.329032989E+02  2.759839001E+02  2.438721871E+02  9.375453908E-01 
        18  3.605378217E-03  1.114680886E-01 -8.997268064E-04  7.567997095E+04  1.770758445E+02  3.261158185E+02  2.648432589E+02  2.871702585E+02  9.368569665E-01 
        19  5.548952344E-03  1.118349081E-01  1.356589372E-03  6.995937225E+04  2.107722608E+02  3.225760038E+02  2.591274195E+02  3.092743840E+02  8.455461506E-01 
        20  7.472030685E-03  1.121892539E-01  3.633809071E-03  7.300083868E+04  2.112576782E+02  3.248931246E+02  2.628641126E+02  2.975320593E+02  7.926553467E-01 
        21  9.366594022E-03  1.125505666E-01  5.932977735E-03  7.661886786E+04  2.080149782E+02  3.270722332E+02  2.664008336E+02  2.840225644E+02  7.569383150E-01 
        22  1.122147558E-02  1.129077905E-01  8.263617067E-03  7.900283019E+04  2.085309366E+02  3.283927973E+02  2.685550944E+02  2.759768971E+02  7.239962951E-01 
        23  1.303284284E-02  1.132507638E-01  1.062953057E-02  8.061752349E+04  2.111720338E+02  3.293252073E+02  2.700817478E+02  2.717353278E+02  6.952833281E-01 
        24  1.479928419E-02  1.136234762E-01  1.303021626E-02  8.175714514E+04  2.152540973E+02  3.299859639E+02  2.711664889E+02  2.680212911E+02  6.611931953E-01 
        25  1.649617427E-02  1.139938279E-01  1.547769530E-02  8.276532452E+04  2.203153865E+02  3.304674616E+02  2.719584718E+02  2.650535867E+02  6.251630224E-01 
        26  1.811807173E-02  1.143837002E-01  1.797032872E-02  8.348845190E+04  2.260038803E+02  3.307849174E+02  2.724809189E+02  2.632970119E+02  5.903421277E-01 
        27  1.968166241E-02  1.148013513E-01  2.049621310E-02  8.359403162E+04  2.329192331E+02  3.308083441E+02  2.725195603E+02  2.633427336E+02  5.552071147E-01 
        28  2.119101764E-02  1.152299366E-01  2.305322148E-02  8.306534958E+04  2.415039325E+02  3.304802912E+02  2.719793756E+02  2.657041498E+02  5.198008963E-01 
        29  2.266338778E-02  1.156643914E-01  2.563116057E-02  8.242886621E+04  2.505537471E+02  3.300434172E+02  2.712609485E+02  2.694061679E+02  4.870745530E-01 
        30  2.408077791E-02  1.161159634E-01  2.823658064E-02  8.188833734E+04  2.586613443E+02  3.297688479E+02  2.708095622E+02  2.727398589E+02  4.578683078E-01 
        31  2.544088325E-02  1.165921105E-01  3.086849856E-02  8.134568567E+04  2.664897773E+02  3.295286140E+02  2.704151995E+02  2.753646383E+02  4.280129932E-01 
        32  2.674433127E-02  1.170738851E-01  3.352942364E-02  8.076899133E+04  2.747353032E+02  3.292103181E+02  2.698930984E+02  2.779571142E+02  3.961792504E-01 
        33  2.797950643E-02  1.175445507E-01  3.622298897E-02  8.021082043E+04  2.832508839E+02  3.288493612E+02  2.693014432E+02  2.807005119E+02  3.635276314E-01 
        34  2.916313541E-02  1.180056499E-01  3.893937175E-02  7.988611539E+04  2.907946889E+02  3.286652646E+02  2.690000714E+02  2.826252273E+02  3.328837189E-01 
        35  3.031249539E-02  1.184785399E-01  4.167042727E-02  8.001415579E+04  2.964469775E+02  3.287850373E+02  2.691960182E+02  2.829010835E+02  3.058868032E-01 
        36  3.139929926E-02  1.189405785E-01  4.442941843E-02  8.028545123E+04  3.017239147E+02  3.289570152E+02  2.694773827E+02  2.828674210E+02  2.796756082E-01 
        37  3.242013936E-02  1.193808800E-01  4.721660669E-02  8.079114120E+04  3.067515229E+02  3.292708377E+02  2.699919946E+02  2.821366235E+02  2.516955780E-01 
        38  3.340677803E-02  1.198011670E-01  5.002067675E-02  8.204724585E+04  3.094448377E+02  3.300125054E+02  2.712100065E+02  2.787155970E+02  2.253005086E-01 
        39  3.430413654E-02  1.201853153E-01  5.285529857E-02  8.374947778E+04  3.107626333E+02  3.309672785E+02  2.727820387E+02  2.738012133E+02  2.002142929E-01 
        40  3.515433510E-02  1.205874318E-01  5.570324370E-02  8.588043799E+04  3.106646671E+02  3.321134224E+02  2.746752815E+02  2.674599648E+02  1.771206921E-01 
        41  3.592907297E-02  1.209644065E-01  5.857535950E-02  8.828215796E+04  3.089434247E+02  3.334056349E+02  2.768173952E+02  2.600736632E+02  1.589150555E-01 
        42  3.664355424E-02  1.213334730E-01  6.146049591E-02  9.074342078E+04  3.057774000E+02  3.346804285E+02  2.789380426E+02  2.522909493E+02  1.475797521E-01 
        43  3.727845098E-02  1.217084379E-01  6.437276718E-02  9.298726050E+04  3.019549913E+02  3.357889242E+02  2.807878275E+02  2.450626116E+02  1.427925262E-01 
        44  3.781448665E-02  1.220744111E-01  6.730672953E-02  9.474176538E+04  2.983924494E+02  3.366658583E+02  2.822556696E+02  2.393558097E+02  1.432710188E-01 
        45  3.826762164E-02  1.224563704E-01  7.025293559E-02  9.590515063E+04  2.957038231E+02  3.373079150E+02  2.833328922E+02  2.356794360E+02  1.473215194E-01 
        46  3.856443464E-02  1.228195695E-01  7.317567491E-02  9.657612500E+04  2.938157349E+02  3.378126068E+02  2.841817474E+02  2.335618362E+02  1.529513337E-01 
        47  3.882754171E-02  1.231963568E-01  7.616928387E-02  9.686408902E+04  2.922716973E+02  3.384793376E+02  2.853059239E+02  2.318482710E+02  1.586866764E-01 
        48  3.896508106E-02  1.235573809E-01  7.913505459E-02  9.686423047E+04  2.886513290E+02  3.395228729E+02  2.870816612E+02  2.257341118E+02  1.624099426E-01 
        49  3.903512947E-02  1.239238609E-01  8.213137167E-02  9.665349280E+04  2.789360847E+02  3.415537779E+02  2.905517077E+02  2.087335829E+02  1.713738458E-01 
        50  3.900153017E-02  1.243001337E-01  8.510504302E-02  9.634449744E+04  2.627632539E+02  3.447661208E+02  2.960546312E+02  1.784868803E+02  1.780455546E-01 
        51  3.889299026E-02  1.246700891E-01  8.806950082E-02  9.602411395E+04  2.460143843E+02  3.482333186E+02  3.020343463E+02  1.339451046E+02  1.582225430E-01 
        52  3.870303970E-02  1.250405990E-01  9.105247242E-02  9.604329858E+04  2.381705098E+02  3.509370890E+02  3.067125587E+02  9.142748010E+01  1.627817249E-02 
        53  3.847530202E-02  1.253810613E-01  9.402032493E-02  9.661869171E+04  2.406149185E+02  3.520363520E+02  3.086330900E+02  5.634636351E+01 -5.716998209E-01 
        54  3.809583015E-02  1.257752167E-01  9.695318516E-02  9.786305078E+04  2.355654564E+02  3.534362373E+02  3.110810013E+02  3.796073198E+01 -1.516235247E+00 
        55  3.767199372E-02  1.261489404E-01  9.992435767E-02  9.841734180E+04  2.432603846E+02  3.524904470E+02  3.094167795E+02  4.547223973E+01 -1.472265519E+00 
        56  3.723780727E-02  1.265196365E-01  1.028569506E-01  1.000856385E+05  2.444144349E+02  3.510505015E+02  3.068927186E+02  6.404019555E+01 -1.109135151E+00 
        57  3.672955052E-02  1.269046997E-01  1.057947981E-01  1.027625035E+05  2.302643790E+02  3.499848533E+02  3.050329561E+02  1.003743002E+02  5.120352423E-02 
        58  3.615520807E-02  1.273091289E-01  1.087154776E-01  1.057935608E+05  2.294409986E+02  3.481929321E+02  3.019218502E+02  1.431603174E+02  2.889156649E-01 
        59  3.556812424E-02  1.277144368E-01  1.116309472E-01  1.075998157E+05  2.454382069E+02  3.462187977E+02  2.985083554E+02  1.731010357E+02  2.578982976E-01 
        60  3.495651588E-02  1.281329458E-01  1.145394580E-01  1.077481550E+05  2.612760835E+02  3.443881354E+02  2.953558578E+02  1.908174467E+02  2.136534587E-01 
        61  3.433795015E-02  1.285471243E-01  1.174457346E-01  1.077220026E+05  2.668798816E+02  3.433640618E+02  2.935989170E+02  1.970258288E+02  2.014986812E-01 
        62  3.376061330E-02  1.289460490E-01  1.203607660E-01  1.080027712E+05  2.656917717E+02  3.432425060E+02  2.933903089E+02  1.944298928E+02  2.012463172E-01 
        63  3.331803132E-02  1.293309423E-01  1.232882868E-01  1.082433615E+05  2.658508788E+02  3.432261299E+02  2.933620933E+02  1.938797963E+02  1.999763304E-01 
        64  3.310586596E-02  1.296649637E-01  1.262581306E-01  1.082827755E+05  2.686844361E+02  3.430606456E+02  2.930793216E+02  1.972041638E+02  1.958718587E-01 
        65  3.306639982E-02  1.299493947E-01  1.292495641E-01  1.081324376E+05  2.714425414E+02  3.429543399E+02  2.928976187E+02  2.002466096E+02  1.915313854E-01 
        66  3.322486525E-02  1.302097713E-01  1.322380794E-01  1.079176266E+05  2.732693471E+02  3.429233723E+02  2.928447629E+02  2.022451834E+02  1.895559313E-01 
        67  3.356462385E-02  1.304573038E-01  1.352130229E-01  1.076764065E+05  2.749216418E+02  3.428527579E+02  2.927241169E+02  2.041847473E+02  1.887502319E-01 
        68  3.400410102E-02  1.306751199E-01  1.381765647E-01  1.073812937E+05  2.763238482E+02  3.427383265E+02  2.925287001E+02  2.058500760E+02  1.883902331E-01 
        69  3.451963359E-02  1.308741206E-01  1.411278790E-01  1.070734031E+05  2.775428474E+02  3.426217856E+02  2.923297896E+02  2.074732511E+02  1.890565630E-01 
        70  3.508991352E-02  1.310576265E-01  1.440660380E-01  1.067343070E+05  2.786733649E+02  3.425064569E+02  2.921329603E+02  2.091235156E+02  1.904014312E-01 
        71  3.570211579E-02  1.312503676E-01  1.470000000E-01  1.063032676E+05  2.800572929E+02  3.423358955E+02  2.918412476E+02  2.110592289E+02  1.909999605E-01 
        72 -2.843361623E-02  1.708417341E-01 -4.258217492E-02  8.206256714E+04  1.837885828E+02  3.299887486E+02  2.711698608E+02  3.442316418E+02  1.007523730E+00 
        73 -2.838826984E-02  1.709653765E-01 -3.916427879E-02  8.210969550E+04  1.844128323E+02  3.299660373E+02  2.711328027E+02  3.448804040E+02  1.006690680E+00 
        74 -2.835908450E-02  1.711140563E-01 -3.574649433E-02  8.238022943E+04  1.833367990E+02  3.302206845E+02  2.715515423E+02  3.435362062E+02  1.008171698E+00 
        75 -2.838361088E-02  1.712589164E-01 -3.232950605E-02  8.284511816E+04  1.833771367E+02  3.303816605E+02  2.718163452E+02  3.429283152E+02  1.006957900E+00 
        76 -2.841360827E-02  1.714319125E-01 -2.891476756E-02  8.344955334E+04  1.820461612E+02  3.307840705E+02  2.724787960E+02  3.416927142E+02  1.009229505E+00 
        77 -2.833774301E-02  1.716334782E-01 -2.549995819E-02  8.392923947E+04  1.808047543E+02  3.310961809E+02  2.729933059E+02  3.395032759E+02  1.009576140E+00 
        78 -2.791452343E-02  1.719215161E-01 -2.212016887E-02  8.421525342E+04  1.803169260E+02  3.311984978E+02  2.731618757E+02  3.391707020E+02  1.010717306E+00 
        79 -2.700703325E-02  1.722886754E-01 -1.884820631E-02  8.418224023E+04  1.798429146E+02  3.311947632E+02  2.731556273E+02  3.403419275E+02  1.014375743E+00 
        80 -2.544395246E-02  1.727209334E-01 -1.584518523E-02  8.335881244E+04  1.810642401E+02  3.306576638E+02  2.722705164E+02  3.428051841E+02  1.014626992E+00 
        81 -2.351536464E-02  1.732363399E-01 -1.306823492E-02  8.139262079E+04  1.847706561E+02  3.296122436E+02  2.705528397E+02  3.484040650E+02  1.012220805E+00 
        82 -2.134527601E-02  1.737374909E-01 -1.047435973E-02  7.876346913E+04  1.908034983E+02  3.280217685E+02  2.679482849E+02  3.557677488E+02  1.005419614E+00 
        83 -1.897326710E-02  1.742189522E-01 -8.035177519E-03  7.584380420E+04  1.980661957E+02  3.263255559E+02  2.651841062E+02  3.642910800E+02  9.972887449E-01 
        84 -1.652827274E-02  1.746780172E-01 -5.688541800E-03  7.347924542E+04  2.059158170E+02  3.247788043E+02  2.626764588E+02  3.702201838E+02  9.826833867E-01 
        85 -1.397929867E-02  1.751251779E-01 -3.446989688E-03  7.256498035E+04  2.099915752E+02  3.242317333E+02  2.617917490E+02  3.737290258E+02  9.760942999E-01 
        86 -1.139011487E-02  1.755573757E-01 -1.256774906E-03  7.351326379E+04  2.110058742E+02  3.247449007E+02  2.626242085E+02  3.721093631E+02  9.694707170E-01 
        87 -8.734274343E-03  1.759085237E-01  8.667805443E-04  7.847489490E+04  2.048181818E+02  3.278314488E+02  2.676454961E+02  3.590056748E+02  9.647466056E-01 
        88 -6.073383534E-03  1.762548475E-01  2.984781313E-03  8.831565814E+04  1.912027236E+02  3.333300331E+02  2.766971387E+02  3.315613317E+02  9.635423720E-01 
        89 -3.359730182E-03  1.765819110E-01  5.053045394E-03  9.796927875E+04  1.739083605E+02  3.383889272E+02  2.851544883E+02  3.071030052E+02  9.900825350E-01 
        90 -6.741955509E-04  1.768270807E-01  7.130208361E-03  9.758831206E+04  1.701614514E+02  3.376794241E+02  2.839606365E+02  3.091706779E+02  1.006789292E+00 
        91  2.027043660E-03  1.770783858E-01  9.208570588E-03  7.893028738E+04  1.951953878E+02  3.279492890E+02  2.678344972E+02  3.629438343E+02  1.004855951E+00 
        92  4.731686997E-03  1.772422585E-01  1.127155269E-02  7.289646324E+04  2.156846451E+02  3.242086455E+02  2.617601737E+02  3.772203880E+02  9.642124160E-01 
        93  7.454465044E-03  1.773874983E-01  1.334309669E-02  7.348264432E+04  2.110126920E+02  3.246483958E+02  2.624673540E+02  3.748611541E+02  9.747833649E-01 
        94  1.015989937E-02  1.775222933E-01  1.545596277E-02  7.086453586E+04  2.186347839E+02  3.229514350E+02  2.597342308E+02  3.821121262E+02  9.641341295E-01 
        95  1.284858280E-02  1.775661421E-01  1.756817794E-02  6.744866992E+04  2.287598119E+02  3.207760084E+02  2.562476934E+02  3.924173608E+02  9.522969062E-01 
        96  1.551966693E-02  1.776138061E-01  1.970369132E-02  6.430869775E+04  2.371552148E+02  3.187647822E+02  2.530442624E+02  4.009742851E+02  9.430162217E-01 
        97  1.817410325E-02  1.776258069E-01  2.186017323E-02  6.171418604E+04  2.454279299E+02  3.169225769E+02  2.501269116E+02  4.085492878E+02  9.327197494E-01 
        98  2.080993586E-02  1.775631240E-01  2.403936301E-02  5.986728967E+04  2.536153150E+02  3.155164146E+02  2.479103575E+02  4.146635618E+02  9.193837568E-01 
        99  2.341570779E-02  1.774969016E-01  2.625394818E-02  5.929488525E+04  2.587613130E+02  3.152253418E+02  2.474540811E+02  4.163665504E+02  9.059113637E-01 
       100  2.600295182E-02  1.773818036E-01  2.848806157E-02  6.107299268E+04  2.608106565E+02  3.164819384E+02  2.494443560E+02  4.124027224E+02  8.903277405E-01 
       101  2.856627515E-02  1.771883875E-01  3.074502562E-02  6.659990454E+04  2.557015362E+02  3.204013281E+02  2.557102842E+02  3.954271126E+02  8.713421263E-01 
       102  3.110662233E-02  1.769811535E-01  3.302644514E-02  7.502652930E+04  2.465281048E+02  3.260256691E+02  2.647660580E+02  3.701479454E+02  8.498037849E-01 
       103  3.362247542E-02  1.767159818E-01  3.532849163E-02  8.181309924E+04  2.429655509E+02  3.300353251E+02  2.712694049E+02  3.521864853E+02  8.261992354E-01 
       104  3.610895472E-02  1.763647845E-01  3.765120331E-02  8.317462988E+04  2.472010975E+02  3.307381268E+02  2.724086351E+02  3.489151177E+02  8.056309903E-01 
       105  3.856497337E-02  1.759966372E-01  4.000321012E-02  8.068911304E+04  2.548889672E+02  3.296057050E+02  2.705443199E+02  3.545030686E+02  7.899085474E-01 
       106  4.103059304E-02  1.755360248E-01  4.234569910E-02  7.841482869E+04  2.618204286E+02  3.285976074E+02  2.688905447E+02  3.599009340E+02  7.762156527E-01 
       107  4.340106546E-02  1.750377176E-01  4.474435622E-02  7.884981544E+04  2.664970872E+02  3.287085593E+02  2.690730348E+02  3.601729563E+02  7.609986914E-01 
       108  4.575540032E-02  1.745445103E-01  4.717695363E-02  8.239046790E+04  2.670570652E+02  3.305132580E+02  2.720412457E+02  3.521720166E+02  7.442516815E-01 
       109  4.807037784E-02  1.739953488E-01  4.963532790E-02  8.855279590E+04  2.628233919E+02  3.337724142E+02  2.774386911E+02  3.361998034E+02  7.301875222E-01 
       110  5.034733117E-02  1.734133857E-01  5.212084081E-02  9.479117041E+04  2.583239937E+02  3.370419636E+02  2.828939495E+02  3.181402092E+02  7.151981182E-01 
       111  5.258765486E-02  1.728405975E-01  5.464144749E-02  9.907085449E+04  2.572913055E+02  3.391923466E+02  2.865098305E+02  3.065802498E+02  7.001918554E-01 
       112  5.479076840E-02  1.722430532E-01  5.718902978E-02  1.019705227E+05  2.575273685E+02  3.406912727E+02  2.890465288E+02  3.000647669E+02  6.893911976E-01 
       113  5.694737683E-02  1.716020731E-01  5.976586917E-02  1.049589351E+05  2.570729194E+02  3.421313298E+02  2.914951627E+02  2.920608160E+02  6.793393716E-01 
       114  5.911848447E-02  1.709340834E-01  6.233872565E-02  1.083059853E+05  2.553915888E+02  3.436514297E+02  2.940904695E+02  2.829394562E+02  6.724823597E-01 
       115  6.119351897E-02  1.703313828E-01  6.496775561E-02  1.111056436E+05  2.545225358E+02  3.448366947E+02  2.961222997E+02  2.763751621E+02  6.672348864E-01 
       116  6.319798910E-02  1.696485115E-01  6.765543605E-02  1.133405227E+05  2.538159599E+02  3.457930946E+02  2.977669449E+02  2.697345986E+02  6.615252197E-01 
       117  6.520189851E-02  1.689621155E-01  7.034628384E-02  1.155705625E+05  2.524081440E+02  3.467275620E+02  2.993784132E+02  2.637935982E+02  6.599980723E-01 
       118  6.717992039E-02  1.682884043E-01  7.305807409E-02  1.172804507E+05  2.506339693E+02  3.473910799E+02  3.005251255E+02  2.597713099E+02  6.626536697E-01 
       119  6.910755662E-02  1.675987334E-01  7.579818779E-02  1.186769115E+05  2.487976303E+02  3.478947711E+02  3.013974190E+02  2.568402693E+02  6.670491770E-01 
       120  7.101404689E-02  1.668389198E-01  7.852135391E-02  1.197054479E+05  2.463608371E+02  3.483116930E+02  3.021200399E+02  2.538269522E+02  6.738002603E-01 
