nodenumber     x-coordinate     y-coordinate     z-coordinate         pressure velocity-magnitude      sound-speed      temperature rel-velocity-magnitude relative-velocity-angle 
         1 -2.216901913E-02  1.039879580E-01 -4.300600202E-02  8.755009280E+04  1.537286355E+02  3.330677658E+02  2.762537315E+02  2.357064830E+02  8.604096964E-01 
         2 -2.197401757E-02  1.042260031E-01 -4.002397295E-02  8.744595331E+04  1.547996916E+02  3.329613057E+02  2.760771508E+02  2.366368735E+02  8.579896747E-01 
         3 -2.150271627E-02  1.045375264E-01 -3.708169353E-02  8.735059509E+04  1.549678270E+02  3.329535320E+02  2.760642207E+02  2.369096791E+02  8.583082245E-01 
         4 -2.072290556E-02  1.049359494E-01 -3.421635317E-02  8.721974548E+04  1.553654494E+02  3.329142923E+02  2.759992409E+02  2.373739617E+02  8.582484322E-01 
         5 -1.964621854E-02  1.053757771E-01 -3.145501365E-02  8.711043530E+04  1.563430963E+02  3.328290977E+02  2.758580184E+02  2.385031638E+02  8.572869282E-01 
         6 -1.833909717E-02  1.058829391E-01 -2.880182754E-02  8.696262695E+04  1.571174726E+02  3.327449198E+02  2.757185454E+02  2.393877387E+02  8.566607218E-01 
         7 -1.686396899E-02  1.064019756E-01 -2.624136390E-02  8.677042480E+04  1.580977230E+02  3.326336460E+02  2.755341587E+02  2.403867283E+02  8.552542496E-01 
         8 -1.524276490E-02  1.069101094E-01 -2.376908005E-02  8.657748694E+04  1.591452718E+02  3.325236492E+02  2.753518467E+02  2.414946136E+02  8.539627641E-01 
         9 -1.353040875E-02  1.074492491E-01 -2.136449246E-02  8.636012720E+04  1.601383421E+02  3.324149384E+02  2.751718965E+02  2.428790562E+02  8.539290410E-01 
        10 -1.175719847E-02  1.079385502E-01 -1.899452623E-02  8.614610730E+04  1.613167793E+02  3.323183308E+02  2.750119796E+02  2.437847834E+02  8.512574658E-01 
        11 -9.920451205E-03  1.084473482E-01 -1.667649769E-02  8.605356464E+04  1.625226397E+02  3.322624965E+02  2.749195560E+02  2.445610546E+02  8.480002331E-01 
        12 -8.053093039E-03  1.089314126E-01 -1.437870322E-02  8.622916934E+04  1.631381617E+02  3.323500340E+02  2.750644758E+02  2.445971632E+02  8.454143540E-01 
        13 -6.139911673E-03  1.093816015E-01 -1.211111235E-02  8.675631348E+04  1.626953621E+02  3.326155739E+02  2.755041428E+02  2.430673280E+02  8.429822605E-01 
        14 -4.213714023E-03  1.098625599E-01 -9.853315987E-03  8.760062158E+04  1.606239262E+02  3.330547543E+02  2.762321987E+02  2.407047520E+02  8.468236625E-01 
        15 -2.267252226E-03  1.102821410E-01 -7.616721013E-03  8.865052295E+04  1.560016899E+02  3.336583061E+02  2.772343531E+02  2.369626417E+02  8.601421751E-01 
        16 -3.058463972E-04  1.106716081E-01 -5.380345181E-03  8.943043311E+04  1.494585977E+02  3.340547304E+02  2.778938427E+02  2.343518305E+02  8.883886579E-01 
        17  1.649896870E-03  1.110991589E-01 -3.144821902E-03  8.749796228E+04  1.467679586E+02  3.329863095E+02  2.761198928E+02  2.431616118E+02  9.345320007E-01 
        18  3.605378217E-03  1.114680886E-01 -8.997268064E-04  7.554597314E+04  1.736705868E+02  3.263155017E+02  2.651675825E+02  2.836866097E+02  9.419893846E-01 
        19  5.548952344E-03  1.118349081E-01  1.356589372E-03  7.009402728E+04  2.096542438E+02  3.228136461E+02  2.595083666E+02  3.073748388E+02  8.428486842E-01 
        20  7.472030685E-03  1.121892539E-01  3.633809071E-03  7.298110291E+04  2.126641552E+02  3.247703442E+02  2.626671203E+02  2.997401661E+02  7.939717257E-01 
        21  9.366594022E-03  1.125505666E-01  5.932977735E-03  7.662997803E+04  2.077744887E+02  3.271522298E+02  2.665319791E+02  2.823435810E+02  7.517136317E-01 
        22  1.122147558E-02  1.129077905E-01  8.263617067E-03  7.906416393E+04  2.070750422E+02  3.285930920E+02  2.688833912E+02  2.737942836E+02  7.236551964E-01 
        23  1.303284284E-02  1.132507638E-01  1.062953057E-02  8.067376118E+04  2.090630048E+02  3.295613431E+02  2.704693655E+02  2.692283940E+02  6.971694180E-01 
        24  1.479928419E-02  1.136234762E-01  1.303021626E-02  8.179386754E+04  2.140742391E+02  3.301106440E+02  2.713711976E+02  2.661170995E+02  6.609251199E-01 
        25  1.649617427E-02  1.139938279E-01  1.547769530E-02  8.275007178E+04  2.194281449E+02  3.305601473E+02  2.721110141E+02  2.634126441E+02  6.241380856E-01 
        26  1.811807173E-02  1.143837002E-01  1.797032872E-02  8.341793628E+04  2.248088202E+02  3.308890848E+02  2.726528239E+02  2.617062683E+02  5.906845601E-01 
        27  1.968166241E-02  1.148013513E-01  2.049621310E-02  8.350785632E+04  2.316435001E+02  3.308850448E+02  2.726458986E+02  2.620018601E+02  5.572237363E-01 
        28  2.119101764E-02  1.152299366E-01  2.305322148E-02  8.302619261E+04  2.406899056E+02  3.305166947E+02  2.720388079E+02  2.652050744E+02  5.225111267E-01 
        29  2.266338778E-02  1.156643914E-01  2.563116057E-02  8.244509003E+04  2.491953261E+02  3.302224472E+02  2.715551187E+02  2.680072403E+02  4.888285205E-01 
        30  2.408077791E-02  1.161159634E-01  2.823658064E-02  8.192853387E+04  2.573359230E+02  3.299477348E+02  2.711034541E+02  2.701699338E+02  4.554594713E-01 
        31  2.544088325E-02  1.165921105E-01  3.086849856E-02  8.137769934E+04  2.659476902E+02  3.295415683E+02  2.704366815E+02  2.731274281E+02  4.229741977E-01 
        32  2.674433127E-02  1.170738851E-01  3.352942364E-02  8.076773267E+04  2.747050505E+02  3.290844254E+02  2.696869001E+02  2.769894876E+02  3.931442676E-01 
        33  2.797950643E-02  1.175445507E-01  3.622298897E-02  8.017646573E+04  2.826584493E+02  3.287851435E+02  2.691962643E+02  2.803971864E+02  3.657634791E-01 
        34  2.916313541E-02  1.180056499E-01  3.893937175E-02  7.983388600E+04  2.892884713E+02  3.287784272E+02  2.691850682E+02  2.820681714E+02  3.387874309E-01 
        35  3.031249539E-02  1.184785399E-01  4.167042727E-02  7.993975220E+04  2.953654435E+02  3.289011283E+02  2.693858531E+02  2.826809939E+02  3.107422993E-01 
        36  3.139929926E-02  1.189405785E-01  4.442941843E-02  8.022073505E+04  3.017212558E+02  3.290145842E+02  2.695720322E+02  2.832856948E+02  2.812810963E-01 
        37  3.242013936E-02  1.193808800E-01  4.721660669E-02  8.079632072E+04  3.070602133E+02  3.293751612E+02  2.701633960E+02  2.824972800E+02  2.513428014E-01 
        38  3.340677803E-02  1.198011670E-01  5.002067675E-02  8.207456909E+04  3.099403054E+02  3.301058757E+02  2.713632871E+02  2.793997252E+02  2.251891821E-01 
        39  3.430413654E-02  1.201853153E-01  5.285529857E-02  8.381144604E+04  3.111434231E+02  3.310670614E+02  2.729464254E+02  2.744390907E+02  2.005329160E-01 
        40  3.515433510E-02  1.205874318E-01  5.570324370E-02  8.594312842E+04  3.107007027E+02  3.322645149E+02  2.749253330E+02  2.679819641E+02  1.788673103E-01 
        41  3.592907297E-02  1.209644065E-01  5.857535950E-02  8.832950928E+04  3.088474631E+02  3.335847979E+02  2.771146998E+02  2.605382910E+02  1.611902099E-01 
        42  3.664355424E-02  1.213334730E-01  6.146049591E-02  9.078991113E+04  3.058699231E+02  3.348068104E+02  2.791482558E+02  2.526909070E+02  1.486130257E-01 
        43  3.727845098E-02  1.217084379E-01  6.437276718E-02  9.305233984E+04  3.021342163E+02  3.358412924E+02  2.808752642E+02  2.452599621E+02  1.425711061E-01 
        44  3.781448665E-02  1.220744111E-01  6.730672953E-02  9.483648730E+04  2.983797264E+02  3.366863604E+02  2.822897282E+02  2.393474913E+02  1.433631866E-01 
        45  3.826762164E-02  1.224563704E-01  7.025293559E-02  9.600186481E+04  2.955511091E+02  3.372733650E+02  2.832746539E+02  2.357002859E+02  1.483951136E-01 
        46  3.856443464E-02  1.228195695E-01  7.317567491E-02  9.662057422E+04  2.936091843E+02  3.376904144E+02  2.839759521E+02  2.338292694E+02  1.553632654E-01 
        47  3.882754171E-02  1.231963568E-01  7.616928387E-02  9.681402737E+04  2.917885529E+02  3.383257287E+02  2.850471625E+02  2.316093000E+02  1.607570039E-01 
        48  3.896508106E-02  1.235573809E-01  7.913505459E-02  9.672918945E+04  2.873582802E+02  3.395112915E+02  2.870629463E+02  2.242731018E+02  1.651498377E-01 
        49  3.903512947E-02  1.239238609E-01  8.213137167E-02  9.660700623E+04  2.769166639E+02  3.417402983E+02  2.908722222E+02  2.056930945E+02  1.742809638E-01 
        50  3.900153017E-02  1.243001337E-01  8.510504302E-02  9.642966043E+04  2.587267871E+02  3.453768574E+02  2.971074187E+02  1.718273689E+02  1.866585810E-01 
        51  3.889299026E-02  1.246700891E-01  8.806950082E-02  9.609536841E+04  2.409748890E+02  3.491222374E+02  3.035734460E+02  1.251677988E+02  1.763384189E-01 
        52  3.870303970E-02  1.250405990E-01  9.105247242E-02  9.594861621E+04  2.337226300E+02  3.516939211E+02  3.080321951E+02  8.429823685E+01  5.103636465E-02 
        53  3.847530202E-02  1.253810613E-01  9.402032493E-02  9.628487741E+04  2.343576481E+02  3.525407689E+02  3.095130839E+02  5.039283174E+01 -4.016585797E-01 
        54  3.809583015E-02  1.257752167E-01  9.695318516E-02  9.691375293E+04  2.369017906E+02  3.527116699E+02  3.098068390E+02  4.151092052E+01 -1.564058036E+00 
        55  3.767199372E-02  1.261489404E-01  9.992435767E-02  9.820567090E+04  2.487630587E+02  3.524153671E+02  3.092830954E+02  4.801299906E+01 -1.942134012E+00 
        56  3.723780727E-02  1.265196365E-01  1.028569506E-01  9.973204572E+04  2.530165955E+02  3.512873868E+02  3.073076874E+02  6.942235489E+01 -1.066227797E+00 
        57  3.672955052E-02  1.269046997E-01  1.057947981E-01  1.013709126E+05  2.413496544E+02  3.497146654E+02  3.045611634E+02  1.103539901E+02  2.352599287E-03 
        58  3.615520807E-02  1.273091289E-01  1.087154776E-01  1.039636313E+05  2.354127111E+02  3.473919783E+02  3.005318346E+02  1.498690848E+02  2.704071915E-01 
        59  3.556812424E-02  1.277144368E-01  1.116309472E-01  1.064501944E+05  2.437235079E+02  3.449596403E+02  2.963358023E+02  1.754075348E+02  2.780050850E-01 
        60  3.495651588E-02  1.281329458E-01  1.145394580E-01  1.078839885E+05  2.529152188E+02  3.438687282E+02  2.944631863E+02  1.845565372E+02  2.457132014E-01 
        61  3.433795015E-02  1.285471243E-01  1.174457346E-01  1.081916490E+05  2.628113985E+02  3.433290334E+02  2.935395465E+02  1.899875643E+02  2.022517715E-01 
        62  3.376061330E-02  1.289460490E-01  1.203607660E-01  1.080856893E+05  2.682712188E+02  3.432127113E+02  2.933399944E+02  1.944138694E+02  1.852087539E-01 
        63  3.331803132E-02  1.293309423E-01  1.232882868E-01  1.080828527E+05  2.696500233E+02  3.432375840E+02  2.933821986E+02  1.958282501E+02  1.835125721E-01 
        64  3.310586596E-02  1.296649637E-01  1.262581306E-01  1.080957064E+05  2.698811400E+02  3.430947597E+02  2.931377895E+02  1.969136741E+02  1.876357199E-01 
        65  3.306639982E-02  1.299493947E-01  1.292495641E-01  1.080680399E+05  2.705532650E+02  3.429574605E+02  2.929030342E+02  1.996898780E+02  1.949522613E-01 
        66  3.322486525E-02  1.302097713E-01  1.322380794E-01  1.079585895E+05  2.718612661E+02  3.428551599E+02  2.927283199E+02  2.014450334E+02  1.951409829E-01 
        67  3.356462385E-02  1.304573038E-01  1.352130229E-01  1.077724764E+05  2.732435437E+02  3.428218219E+02  2.926713908E+02  2.021163512E+02  1.914829803E-01 
        68  3.400410102E-02  1.306751199E-01  1.381765647E-01  1.074449232E+05  2.746445091E+02  3.427662559E+02  2.925765224E+02  2.034088509E+02  1.898990453E-01 
        69  3.451963359E-02  1.308741206E-01  1.411278790E-01  1.070856729E+05  2.763112562E+02  3.426628842E+02  2.924000132E+02  2.056316450E+02  1.900065897E-01 
        70  3.508991352E-02  1.310576265E-01  1.440660380E-01  1.067361284E+05  2.779376180E+02  3.425224605E+02  2.921604290E+02  2.079651420E+02  1.907581631E-01 
        71  3.570211579E-02  1.312503676E-01  1.470000000E-01  1.062937969E+05  2.795208778E+02  3.423409348E+02  2.918480530E+02  2.103550091E+02  1.917315163E-01 
        72 -2.843361623E-02  1.708417341E-01 -4.258217492E-02  8.210532544E+04  1.839326572E+02  3.299857826E+02  2.711649437E+02  3.447288361E+02  1.007965423E+00 
        73 -2.838826984E-02  1.709653765E-01 -3.916427879E-02  8.218296686E+04  1.838336616E+02  3.300480833E+02  2.712674286E+02  3.443353953E+02  1.007628107E+00 
        74 -2.835908450E-02  1.711140563E-01 -3.574649433E-02  8.239546790E+04  1.833570213E+02  3.301991456E+02  2.715160549E+02  3.430140185E+02  1.007203211E+00 
        75 -2.838361088E-02  1.712589164E-01 -3.232950605E-02  8.280830298E+04  1.834014878E+02  3.303766680E+02  2.718080072E+02  3.438044767E+02  1.008409530E+00 
        76 -2.841360827E-02  1.714319125E-01 -2.891476756E-02  8.321384656E+04  1.822610965E+02  3.306685510E+02  2.722883978E+02  3.411292372E+02  1.007543055E+00 
        77 -2.833774301E-02  1.716334782E-01 -2.549995819E-02  8.373495905E+04  1.815448191E+02  3.309727250E+02  2.727895427E+02  3.402192929E+02  1.008273477E+00 
        78 -2.791452343E-02  1.719215161E-01 -2.212016887E-02  8.421651611E+04  1.802048588E+02  3.312185650E+02  2.731949883E+02  3.390457134E+02  1.010998707E+00 
        79 -2.700703325E-02  1.722886754E-01 -1.884820631E-02  8.415955762E+04  1.806290283E+02  3.310818014E+02  2.729695816E+02  3.411919689E+02  1.013509594E+00 
        80 -2.544395246E-02  1.727209334E-01 -1.584518523E-02  8.318379944E+04  1.814866352E+02  3.305955701E+02  2.721686449E+02  3.436597819E+02  1.014753172E+00 
        81 -2.351536464E-02  1.732363399E-01 -1.306823492E-02  8.129027663E+04  1.850164201E+02  3.295411243E+02  2.704357405E+02  3.481424244E+02  1.010857525E+00 
        82 -2.134527601E-02  1.737374909E-01 -1.047435973E-02  7.875448111E+04  1.910261637E+02  3.280085477E+02  2.679256403E+02  3.555227386E+02  1.004686959E+00 
        83 -1.897326710E-02  1.742189522E-01 -8.035177519E-03  7.586260880E+04  1.992228094E+02  3.262208328E+02  2.650146785E+02  3.635784096E+02  9.920698907E-01 
        84 -1.652827274E-02  1.746780172E-01 -5.688541800E-03  7.364308374E+04  2.046667855E+02  3.249781137E+02  2.629983885E+02  3.702182283E+02  9.869417939E-01 
        85 -1.397929867E-02  1.751251779E-01 -3.446989688E-03  7.267350317E+04  2.092935147E+02  3.243482323E+02  2.619798026E+02  3.726873751E+02  9.762150254E-01 
        86 -1.139011487E-02  1.755573757E-01 -1.256774906E-03  7.350602832E+04  2.102444398E+02  3.248667178E+02  2.628213992E+02  3.718056564E+02  9.711902551E-01 
        87 -8.734274343E-03  1.759085237E-01  8.667805443E-04  7.819711945E+04  2.041965288E+02  3.277859011E+02  2.675735872E+02  3.575832770E+02  9.642969342E-01 
        88 -6.073383534E-03  1.762548475E-01  2.984781313E-03  8.807899280E+04  1.917569937E+02  3.331572244E+02  2.764120870E+02  3.322056234E+02  9.632077580E-01 
        89 -3.359730182E-03  1.765819110E-01  5.053045394E-03  9.807478522E+04  1.766646165E+02  3.381966028E+02  2.848295612E+02  3.053104532E+02  9.784284625E-01 
        90 -6.741955509E-04  1.768270807E-01  7.130208361E-03  9.618728814E+04  1.677720819E+02  3.373279461E+02  2.833695758E+02  3.130802028E+02  1.019182464E+00 
        91  2.027043660E-03  1.770783858E-01  9.208570588E-03  7.878261587E+04  1.932275995E+02  3.280511106E+02  2.680009430E+02  3.600458599E+02  1.005173918E+00 
        92  4.731686997E-03  1.772422585E-01  1.127155269E-02  7.357702477E+04  2.104087716E+02  3.249031214E+02  2.628799626E+02  3.709473992E+02  9.690161599E-01 
        93  7.454465044E-03  1.773874983E-01  1.334309669E-02  7.395646068E+04  2.070890940E+02  3.251187402E+02  2.632281782E+02  3.695771983E+02  9.773821475E-01 
        94  1.015989937E-02  1.775222933E-01  1.545596277E-02  7.091367329E+04  2.162147948E+02  3.233212728E+02  2.603315504E+02  3.811590095E+02  9.704803268E-01 
        95  1.284858280E-02  1.775661421E-01  1.756817794E-02  6.738761923E+04  2.287366092E+02  3.208673631E+02  2.563961296E+02  3.932639802E+02  9.546723040E-01 
        96  1.551966693E-02  1.776138061E-01  1.970369132E-02  6.437148816E+04  2.370435374E+02  3.188035262E+02  2.531101403E+02  4.003572986E+02  9.429008076E-01 
        97  1.817410325E-02  1.776258069E-01  2.186017323E-02  6.174047546E+04  2.444797130E+02  3.170135260E+02  2.502737765E+02  4.067446332E+02  9.323641723E-01 
        98  2.080993586E-02  1.775631240E-01  2.403936301E-02  5.977050720E+04  2.530958047E+02  3.154602785E+02  2.478266144E+02  4.135800772E+02  9.192049038E-01 
        99  2.341570779E-02  1.774969016E-01  2.625394818E-02  5.923589551E+04  2.588827620E+02  3.150888300E+02  2.472435198E+02  4.164962006E+02  9.065567460E-01 
       100  2.600295182E-02  1.773818036E-01  2.848806157E-02  6.100281714E+04  2.602473736E+02  3.165241356E+02  2.495117254E+02  4.117044725E+02  8.909987025E-01 
       101  2.856627515E-02  1.771883875E-01  3.074502562E-02  6.654863257E+04  2.556216421E+02  3.204368305E+02  2.557709732E+02  3.956513443E+02  8.722240031E-01 
       102  3.110662233E-02  1.769811535E-01  3.302644514E-02  7.508755493E+04  2.470392504E+02  3.259800959E+02  2.646956644E+02  3.715574999E+02  8.511857279E-01 
       103  3.362247542E-02  1.767159818E-01  3.532849163E-02  8.180099939E+04  2.432085872E+02  3.300151272E+02  2.712363467E+02  3.530449905E+02  8.273379896E-01 
       104  3.610895472E-02  1.763647845E-01  3.765120331E-02  8.297706042E+04  2.473753178E+02  3.307375264E+02  2.724103222E+02  3.498746629E+02  8.072179323E-01 
       105  3.856497337E-02  1.759966372E-01  4.000321012E-02  8.054409009E+04  2.563135836E+02  3.292680610E+02  2.699929863E+02  3.570536817E+02  7.900244896E-01 
       106  4.103059304E-02  1.755360248E-01  4.234569910E-02  7.838685333E+04  2.640709095E+02  3.279891340E+02  2.678969429E+02  3.636026897E+02  7.759358993E-01 
       107  4.340106546E-02  1.750377176E-01  4.474435622E-02  7.874873758E+04  2.674861536E+02  3.283142816E+02  2.684290370E+02  3.619664028E+02  7.611202088E-01 
       108  4.575540032E-02  1.745445103E-01  4.717695363E-02  8.219805701E+04  2.662540164E+02  3.304436264E+02  2.719278901E+02  3.519249578E+02  7.464377470E-01 
       109  4.807037784E-02  1.739953488E-01  4.963532790E-02  8.839824170E+04  2.611498051E+02  3.339712782E+02  2.777720232E+02  3.341998806E+02  7.327424251E-01 
       110  5.034733117E-02  1.734133857E-01  5.212084081E-02  9.484736279E+04  2.569752941E+02  3.373659897E+02  2.834387074E+02  3.157710209E+02  7.161928006E-01 
       111  5.258765486E-02  1.728405975E-01  5.464144749E-02  9.918869141E+04  2.570760937E+02  3.393491440E+02  2.867742100E+02  3.063975029E+02  7.006422803E-01 
       112  5.479076840E-02  1.722430532E-01  5.718902978E-02  1.020011931E+05  2.582973843E+02  3.405877724E+02  2.888707018E+02  3.012034349E+02  6.882789843E-01 
       113  5.694737683E-02  1.716020731E-01  5.976586917E-02  1.049807493E+05  2.584917271E+02  3.419160907E+02  2.911289754E+02  2.931127336E+02  6.756574805E-01 
       114  5.911848447E-02  1.709340834E-01  6.233872565E-02  1.083863087E+05  2.566523009E+02  3.435239966E+02  2.938731227E+02  2.829908719E+02  6.680119785E-01 
       115  6.119351897E-02  1.703313828E-01  6.496775561E-02  1.113375491E+05  2.546199889E+02  3.449649429E+02  2.963429556E+02  2.746107316E+02  6.648460589E-01 
       116  6.319798910E-02  1.696485115E-01  6.765543605E-02  1.136042738E+05  2.539552507E+02  3.459241924E+02  2.979927692E+02  2.693005862E+02  6.605145102E-01 
       117  6.520189851E-02  1.689621155E-01  7.034628384E-02  1.157134834E+05  2.521963406E+02  3.468267889E+02  2.995497932E+02  2.640347500E+02  6.610638164E-01 
       118  6.717992039E-02  1.682884043E-01  7.305807409E-02  1.173900527E+05  2.501053371E+02  3.475667677E+02  3.008292379E+02  2.603183537E+02  6.651779078E-01 
       119  6.910755662E-02  1.675987334E-01  7.579818779E-02  1.186828527E+05  2.495644374E+02  3.480245209E+02  3.016221843E+02  2.564125354E+02  6.634635678E-01 
       120  7.101404689E-02  1.668389198E-01  7.852135391E-02  1.197123037E+05  2.469605185E+02  3.484928122E+02  3.024342566E+02  2.533999856E+02  6.709951507E-01 
