nodenumber     x-coordinate     y-coordinate     z-coordinate         pressure velocity-magnitude      sound-speed      temperature rel-velocity-magnitude relative-velocity-angle 
         1 -2.216901913E-02  1.039879580E-01 -4.300600202E-02  8.760880551E+04  1.537228786E+02  3.330701438E+02  2.762577204E+02  2.356451386E+02  8.602062070E-01 
         2 -2.197401757E-02  1.042260031E-01 -4.002397295E-02  8.747074127E+04  1.544377528E+02  3.330007843E+02  2.761426088E+02  2.364251963E+02  8.592361573E-01 
         3 -2.150271627E-02  1.045375264E-01 -3.708169353E-02  8.736439740E+04  1.550811318E+02  3.329464986E+02  2.760526016E+02  2.369854141E+02  8.579487926E-01 
         4 -2.072290556E-02  1.049359494E-01 -3.421635317E-02  8.725357788E+04  1.557180986E+02  3.328917103E+02  2.759617686E+02  2.377233045E+02  8.574267849E-01 
         5 -1.964621854E-02  1.053757771E-01 -3.145501365E-02  8.714983716E+04  1.563845577E+02  3.328392506E+02  2.758748717E+02  2.384512043E+02  8.567820806E-01 
         6 -1.833909717E-02  1.058829391E-01 -2.880182754E-02  8.702233887E+04  1.570781350E+02  3.327739229E+02  2.757665429E+02  2.393380675E+02  8.565855939E-01 
         7 -1.686396899E-02  1.064019756E-01 -2.624136390E-02  8.683243921E+04  1.579934583E+02  3.326671124E+02  2.755895147E+02  2.403552985E+02  8.556389082E-01 
         8 -1.524276490E-02  1.069101094E-01 -2.376908005E-02  8.659155798E+04  1.591525726E+02  3.325254278E+02  2.753548422E+02  2.415995030E+02  8.541966341E-01 
         9 -1.353040875E-02  1.074492491E-01 -2.136449246E-02  8.634781641E+04  1.603156579E+02  3.323998194E+02  2.751469510E+02  2.429869063E+02  8.533209674E-01 
        10 -1.175719847E-02  1.079385502E-01 -1.899452623E-02  8.611143579E+04  1.614392599E+02  3.322937272E+02  2.749713416E+02  2.441363990E+02  8.518700339E-01 
        11 -9.920451205E-03  1.084473482E-01 -1.667649769E-02  8.600371841E+04  1.627752441E+02  3.322275596E+02  2.748618211E+02  2.449379407E+02  8.479524220E-01 
        12 -8.053093039E-03  1.089314126E-01 -1.437870322E-02  8.617193878E+04  1.634168227E+02  3.323047820E+02  2.749895867E+02  2.446881977E+02  8.442387749E-01 
        13 -6.139911673E-03  1.093816015E-01 -1.211111235E-02  8.668686060E+04  1.628493118E+02  3.325803137E+02  2.754457555E+02  2.431270018E+02  8.424689919E-01 
        14 -4.213714023E-03  1.098625599E-01 -9.853315987E-03  8.750479150E+04  1.606846666E+02  3.330255947E+02  2.761838398E+02  2.406043949E+02  8.460533731E-01 
        15 -2.267252226E-03  1.102821410E-01 -7.616721013E-03  8.854537207E+04  1.564568377E+02  3.335873737E+02  2.771164989E+02  2.371874666E+02  8.583403006E-01 
        16 -3.058463972E-04  1.106716081E-01 -5.380345181E-03  8.938464355E+04  1.497532129E+02  3.340217533E+02  2.778388958E+02  2.343030620E+02  8.864157815E-01 
        17  1.649896870E-03  1.110991589E-01 -3.144821902E-03  8.736947632E+04  1.456085188E+02  3.330352621E+02  2.762020528E+02  2.410783737E+02  9.337997790E-01 
        18  3.605378217E-03  1.114680886E-01 -8.997268064E-04  7.555772144E+04  1.748695633E+02  3.262131271E+02  2.650009289E+02  2.847536488E+02  9.381368272E-01 
        19  5.548952344E-03  1.118349081E-01  1.356589372E-03  6.987051093E+04  2.103768306E+02  3.226295390E+02  2.592127969E+02  3.090565522E+02  8.462190758E-01 
        20  7.472030685E-03  1.121892539E-01  3.633809071E-03  7.284443042E+04  2.142339059E+02  3.244648246E+02  2.621752014E+02  3.006955862E+02  7.903122394E-01 
        21  9.366594022E-03  1.125505666E-01  5.932977735E-03  7.659626215E+04  2.085287493E+02  3.269358218E+02  2.661803610E+02  2.846706119E+02  7.566805538E-01 
        22  1.122147558E-02  1.129077905E-01  8.263617067E-03  7.901833714E+04  2.088637418E+02  3.283020378E+02  2.684085608E+02  2.774154263E+02  7.280640128E-01 
        23  1.303284284E-02  1.132507638E-01  1.062953057E-02  8.055190868E+04  2.108321042E+02  3.292617051E+02  2.699781827E+02  2.712028590E+02  6.958159375E-01 
        24  1.479928419E-02  1.136234762E-01  1.303021626E-02  8.166691904E+04  2.146501433E+02  3.299486402E+02  2.711051134E+02  2.667099422E+02  6.599978628E-01 
        25  1.649617427E-02  1.139938279E-01  1.547769530E-02  8.267446143E+04  2.197916605E+02  3.304484987E+02  2.719269674E+02  2.645119991E+02  6.257998133E-01 
        26  1.811807173E-02  1.143837002E-01  1.797032872E-02  8.337844250E+04  2.258334222E+02  3.307353253E+02  2.723988962E+02  2.639998727E+02  5.933118267E-01 
        27  1.968166241E-02  1.148013513E-01  2.049621310E-02  8.344984052E+04  2.331649911E+02  3.307196071E+02  2.723730316E+02  2.648648078E+02  5.592736006E-01 
        28  2.119101764E-02  1.152299366E-01  2.305322148E-02  8.293649001E+04  2.419017708E+02  3.304503210E+02  2.719295757E+02  2.669373722E+02  5.220715138E-01 
        29  2.266338778E-02  1.156643914E-01  2.563116057E-02  8.237440802E+04  2.507814313E+02  3.301304982E+02  2.714035957E+02  2.691054118E+02  4.843601969E-01 
        30  2.408077791E-02  1.161159634E-01  2.823658064E-02  8.187964075E+04  2.592166007E+02  3.298030562E+02  2.708654013E+02  2.716032462E+02  4.506708984E-01 
        31  2.544088325E-02  1.165921105E-01  3.086849856E-02  8.134696948E+04  2.672526948E+02  3.294441481E+02  2.702763293E+02  2.743833694E+02  4.204322617E-01 
        32  2.674433127E-02  1.170738851E-01  3.352942364E-02  8.079295337E+04  2.749194279E+02  3.291144071E+02  2.697355342E+02  2.770549769E+02  3.919687355E-01 
        33  2.797950643E-02  1.175445507E-01  3.622298897E-02  8.028783398E+04  2.824577466E+02  3.288423934E+02  2.692896724E+02  2.795226384E+02  3.634612577E-01 
        34  2.916313541E-02  1.180056499E-01  3.893937175E-02  8.000149734E+04  2.896701202E+02  3.286817503E+02  2.690264972E+02  2.815652976E+02  3.349053784E-01 
        35  3.031249539E-02  1.184785399E-01  4.167042727E-02  8.011847363E+04  2.956228732E+02  3.287433670E+02  2.691274372E+02  2.823315648E+02  3.081509440E-01 
        36  3.139929926E-02  1.189405785E-01  4.442941843E-02  8.038272174E+04  3.012247826E+02  3.288842934E+02  2.693581011E+02  2.825161460E+02  2.810863531E-01 
        37  3.242013936E-02  1.193808800E-01  4.721660669E-02  8.086585627E+04  3.062184998E+02  3.292239855E+02  2.699149341E+02  2.815609828E+02  2.523708519E-01 
        38  3.340677803E-02  1.198011670E-01  5.002067675E-02  8.202527414E+04  3.089359567E+02  3.299569180E+02  2.711185778E+02  2.781839621E+02  2.259869622E-01 
        39  3.430413654E-02  1.201853153E-01  5.285529857E-02  8.361683618E+04  3.103722391E+02  3.308968315E+02  2.726658373E+02  2.734936123E+02  2.011293527E-01 
        40  3.515433510E-02  1.205874318E-01  5.570324370E-02  8.561214697E+04  3.105186234E+02  3.320129471E+02  2.745089340E+02  2.675091152E+02  1.781182168E-01 
        41  3.592907297E-02  1.209644065E-01  5.857535950E-02  8.792760376E+04  3.091606083E+02  3.332695122E+02  2.765911674E+02  2.604996076E+02  1.593781314E-01 
        42  3.664355424E-02  1.213334730E-01  6.146049591E-02  9.040436401E+04  3.064035449E+02  3.345308352E+02  2.786886020E+02  2.529862061E+02  1.467533039E-01 
        43  3.727845098E-02  1.217084379E-01  6.437276718E-02  9.276560425E+04  3.028100929E+02  3.356949282E+02  2.806308584E+02  2.458369694E+02  1.409004070E-01 
        44  3.781448665E-02  1.220744111E-01  6.730672953E-02  9.469194189E+04  2.991509962E+02  3.366814775E+02  2.822820168E+02  2.399566922E+02  1.411509896E-01 
        45  3.826762164E-02  1.224563704E-01  7.025293559E-02  9.599007123E+04  2.963500404E+02  3.373858323E+02  2.834639564E+02  2.360980470E+02  1.450395784E-01 
        46  3.856443464E-02  1.228195695E-01  7.317567491E-02  9.666173828E+04  2.946421585E+02  3.378314819E+02  2.842132645E+02  2.341857300E+02  1.503810696E-01 
        47  3.882754171E-02  1.231963568E-01  7.616928387E-02  9.686492358E+04  2.931207027E+02  3.384380478E+02  2.852361164E+02  2.324698741E+02  1.558794196E-01 
        48  3.896508106E-02  1.235573809E-01  7.913505459E-02  9.677976172E+04  2.899548187E+02  3.393530655E+02  2.867916451E+02  2.271099319E+02  1.588747092E-01 
        49  3.903512947E-02  1.239238609E-01  8.213137167E-02  9.661095020E+04  2.816095536E+02  3.411135261E+02  2.897968669E+02  2.123754673E+02  1.645335830E-01 
        50  3.900153017E-02  1.243001337E-01  8.510504302E-02  9.648581812E+04  2.664533435E+02  3.441006842E+02  2.949085688E+02  1.846086978E+02  1.690318045E-01 
        51  3.889299026E-02  1.246700891E-01  8.806950082E-02  9.650792566E+04  2.494044921E+02  3.477252038E+02  3.011568601E+02  1.397606668E+02  1.399802704E-01 
        52  3.870303970E-02  1.250405990E-01  9.105247242E-02  9.691224512E+04  2.392038145E+02  3.510779037E+02  3.069620075E+02  9.487915957E+01  1.473882643E-02 
        53  3.847530202E-02  1.253810613E-01  9.402032493E-02  9.722823593E+04  2.338607130E+02  3.530570127E+02  3.104231814E+02  5.610944633E+01 -2.149060633E-01 
        54  3.809583015E-02  1.257752167E-01  9.695318516E-02  9.770291895E+04  2.300264511E+02  3.535757179E+02  3.113263893E+02  3.575510192E+01 -1.578045785E+00 
        55  3.767199372E-02  1.261489404E-01  9.992435767E-02  9.894441479E+04  2.388910027E+02  3.527826529E+02  3.099292812E+02  4.060137296E+01 -1.470019486E+00 
        56  3.723780727E-02  1.265196365E-01  1.028569506E-01  1.015082916E+05  2.470144790E+02  3.518473291E+02  3.082890360E+02  5.544812885E+01 -1.134383359E+00 
        57  3.672955052E-02  1.269046997E-01  1.057947981E-01  1.040140486E+05  2.511967607E+02  3.508847857E+02  3.066043262E+02  9.244864440E+01 -3.618468187E-01 
        58  3.615520807E-02  1.273091289E-01  1.087154776E-01  1.054800513E+05  2.533162227E+02  3.488292503E+02  3.030259466E+02  1.417549982E+02  6.281384500E-02 
        59  3.556812424E-02  1.277144368E-01  1.116309472E-01  1.067423659E+05  2.559611285E+02  3.458739157E+02  2.979115951E+02  1.802586291E+02  2.141569362E-01 
        60  3.495651588E-02  1.281329458E-01  1.145394580E-01  1.077857761E+05  2.596030326E+02  3.439088025E+02  2.945313168E+02  1.906930938E+02  2.242314033E-01 
        61  3.433795015E-02  1.285471243E-01  1.174457346E-01  1.082373464E+05  2.612016575E+02  3.434672284E+02  2.937742305E+02  1.893739808E+02  2.101302408E-01 
        62  3.376061330E-02  1.289460490E-01  1.203607660E-01  1.083327158E+05  2.640155354E+02  3.434213274E+02  2.936958077E+02  1.907385161E+02  1.984697136E-01 
        63  3.331803132E-02  1.293309423E-01  1.232882868E-01  1.082240732E+05  2.681917272E+02  3.432615587E+02  2.934225652E+02  1.951620764E+02  1.897416631E-01 
        64  3.310586596E-02  1.296649637E-01  1.262581306E-01  1.080705804E+05  2.713861043E+02  3.431059432E+02  2.931565533E+02  1.990616802E+02  1.857197093E-01 
        65  3.306639982E-02  1.299493947E-01  1.292495641E-01  1.079260912E+05  2.730436866E+02  3.430425029E+02  2.930481732E+02  2.013177540E+02  1.854825189E-01 
        66  3.322486525E-02  1.302097713E-01  1.322380794E-01  1.077921748E+05  2.739057496E+02  3.430329617E+02  2.930317391E+02  2.026284667E+02  1.869421695E-01 
        67  3.356462385E-02  1.304573038E-01  1.352130229E-01  1.076233355E+05  2.748795932E+02  3.429845526E+02  2.929491116E+02  2.038424317E+02  1.876927382E-01 
        68  3.400410102E-02  1.306751199E-01  1.381765647E-01  1.073853322E+05  2.759499917E+02  3.428963208E+02  2.927983449E+02  2.050396307E+02  1.876918424E-01 
        69  3.451963359E-02  1.308741206E-01  1.411278790E-01  1.070867681E+05  2.771806605E+02  3.427629395E+02  2.925706458E+02  2.065314083E+02  1.878388897E-01 
        70  3.508991352E-02  1.310576265E-01  1.440660380E-01  1.067205226E+05  2.784817450E+02  3.426090755E+02  2.923080008E+02  2.082492187E+02  1.883961230E-01 
        71  3.570211579E-02  1.312503676E-01  1.470000000E-01  1.063130264E+05  2.800261993E+02  3.424115868E+02  2.919710312E+02  2.103815022E+02  1.887340825E-01 
        72 -2.843361623E-02  1.708417341E-01 -4.258217492E-02  8.203622534E+04  1.838734016E+02  3.299603548E+02  2.711231356E+02  3.444801712E+02  1.007667117E+00 
        73 -2.838826984E-02  1.709653765E-01 -3.916427879E-02  8.206915179E+04  1.841616776E+02  3.299626293E+02  2.711270697E+02  3.447332392E+02  1.007240437E+00 
        74 -2.835908450E-02  1.711140563E-01 -3.574649433E-02  8.235579956E+04  1.839990079E+02  3.301296682E+02  2.714017060E+02  3.438903291E+02  1.006457036E+00 
        75 -2.838361088E-02  1.712589164E-01 -3.232950605E-02  8.288919800E+04  1.829879851E+02  3.304629393E+02  2.719500246E+02  3.420421906E+02  1.006573632E+00 
        76 -2.841360827E-02  1.714319125E-01 -2.891476756E-02  8.349808118E+04  1.824359303E+02  3.307773294E+02  2.724676037E+02  3.421271067E+02  1.008548334E+00 
        77 -2.833774301E-02  1.716334782E-01 -2.549995819E-02  8.409717050E+04  1.808602797E+02  3.311619121E+02  2.731013591E+02  3.392974946E+02  1.008992371E+00 
        78 -2.791452343E-02  1.719215161E-01 -2.212016887E-02  8.449209473E+04  1.797177572E+02  3.313701153E+02  2.734448967E+02  3.390308056E+02  1.012448780E+00 
        79 -2.700703325E-02  1.722886754E-01 -1.884820631E-02  8.434746191E+04  1.798859735E+02  3.312293406E+02  2.732126560E+02  3.392724304E+02  1.012365874E+00 
        80 -2.544395246E-02  1.727209334E-01 -1.584518523E-02  8.325897003E+04  1.807861997E+02  3.307101390E+02  2.723569918E+02  3.434188621E+02  1.016681314E+00 
        81 -2.351536464E-02  1.732363399E-01 -1.306823492E-02  8.139049689E+04  1.850465368E+02  3.295391573E+02  2.704318736E+02  3.476696035E+02  1.009703175E+00 
        82 -2.134527601E-02  1.737374909E-01 -1.047435973E-02  7.866667081E+04  1.906001359E+02  3.280568941E+02  2.680054076E+02  3.562731481E+02  1.006937814E+00 
        83 -1.897326710E-02  1.742189522E-01 -8.035177519E-03  7.564322760E+04  1.990771449E+02  3.261675024E+02  2.649279484E+02  3.649207050E+02  9.951839065E-01 
        84 -1.652827274E-02  1.746780172E-01 -5.688541800E-03  7.329436102E+04  2.064069855E+02  3.246747942E+02  2.625079660E+02  3.719403648E+02  9.846040402E-01 
        85 -1.397929867E-02  1.751251779E-01 -3.446989688E-03  7.268375598E+04  2.104303861E+02  3.242488346E+02  2.618188772E+02  3.743218379E+02  9.757569358E-01 
        86 -1.139011487E-02  1.755573757E-01 -1.256774906E-03  7.369120996E+04  2.099861548E+02  3.249842820E+02  2.630094881E+02  3.716460676E+02  9.715639222E-01 
        87 -8.734274343E-03  1.759085237E-01  8.667805443E-04  7.890163782E+04  2.032126557E+02  3.281552248E+02  2.681751142E+02  3.572282920E+02  9.662899133E-01 
        88 -6.073383534E-03  1.762548475E-01  2.984781313E-03  8.849881549E+04  1.917266332E+02  3.333188543E+02  2.766790712E+02  3.313347535E+02  9.615290966E-01 
        89 -3.359730182E-03  1.765819110E-01  5.053045394E-03  9.802336877E+04  1.757781231E+02  3.382629321E+02  2.849423504E+02  3.060601134E+02  9.822570193E-01 
        90 -6.741955509E-04  1.768270807E-01  7.130208361E-03  9.831031738E+04  1.658313162E+02  3.382777784E+02  2.849668958E+02  3.035504682E+02  1.014560120E+00 
        91  2.027043660E-03  1.770783858E-01  9.208570588E-03  7.910188934E+04  1.922794462E+02  3.280437396E+02  2.679883124E+02  3.590174969E+02  1.006745826E+00 
        92  4.731686997E-03  1.772422585E-01  1.127155269E-02  7.281825880E+04  2.127108719E+02  3.244614820E+02  2.621652694E+02  3.744771795E+02  9.683031414E-01 
        93  7.454465044E-03  1.773874983E-01  1.334309669E-02  7.345742073E+04  2.095128560E+02  3.247219114E+02  2.625854230E+02  3.732543839E+02  9.761220815E-01 
        94  1.015989937E-02  1.775222933E-01  1.545596277E-02  7.079762101E+04  2.176106540E+02  3.229958295E+02  2.598060352E+02  3.817317164E+02  9.667489379E-01 
        95  1.284858280E-02  1.775661421E-01  1.756817794E-02  6.728844519E+04  2.288932309E+02  3.206850988E+02  2.561029495E+02  3.937449198E+02  9.547671578E-01 
        96  1.551966693E-02  1.776138061E-01  1.970369132E-02  6.424528699E+04  2.376824436E+02  3.186385918E+02  2.528446882E+02  4.014690022E+02  9.423527094E-01 
        97  1.817410325E-02  1.776258069E-01  2.186017323E-02  6.174427478E+04  2.456006060E+02  3.168968849E+02  2.500863075E+02  4.082506809E+02  9.311641771E-01 
        98  2.080993586E-02  1.775631240E-01  2.403936301E-02  5.999336523E+04  2.524854097E+02  3.157052474E+02  2.482061901E+02  4.129685383E+02  9.189327173E-01 
        99  2.341570779E-02  1.774969016E-01  2.625394818E-02  5.950049817E+04  2.567790589E+02  3.155087032E+02  2.478977184E+02  4.132507725E+02  9.052965343E-01 
       100  2.600295182E-02  1.773818036E-01  2.848806157E-02  6.125289014E+04  2.577113428E+02  3.169156017E+02  2.501284237E+02  4.080625648E+02  8.905035593E-01 
       101  2.856627515E-02  1.771883875E-01  3.074502562E-02  6.670064600E+04  2.532295380E+02  3.207828484E+02  2.563169947E+02  3.928719368E+02  8.733522147E-01 
       102  3.110662233E-02  1.769811535E-01  3.302644514E-02  7.504127832E+04  2.456072121E+02  3.262461653E+02  2.651259546E+02  3.693224573E+02  8.507740386E-01 
       103  3.362247542E-02  1.767159818E-01  3.532849163E-02  8.179764294E+04  2.434205728E+02  3.301273518E+02  2.714190788E+02  3.528474779E+02  8.252817802E-01 
       104  3.610895472E-02  1.763647845E-01  3.765120331E-02  8.319953149E+04  2.486468697E+02  3.306576157E+02  2.722750587E+02  3.506617527E+02  8.036247566E-01 
       105  3.856497337E-02  1.759966372E-01  4.000321012E-02  8.060224490E+04  2.560838021E+02  3.293388286E+02  2.701074542E+02  3.569022505E+02  7.901252294E-01 
       106  4.103059304E-02  1.755360248E-01  4.234569910E-02  7.824549420E+04  2.633212195E+02  3.281383031E+02  2.681384801E+02  3.634970743E+02  7.777296780E-01 
       107  4.340106546E-02  1.750377176E-01  4.474435622E-02  7.894893689E+04  2.672317433E+02  3.285835419E+02  2.688685026E+02  3.619773536E+02  7.616596585E-01 
       108  4.575540032E-02  1.745445103E-01  4.717695363E-02  8.277913013E+04  2.661552715E+02  3.308136744E+02  2.725375154E+02  3.517945542E+02  7.464651465E-01 
       109  4.807037784E-02  1.739953488E-01  4.963532790E-02  8.895810156E+04  2.610950661E+02  3.341926451E+02  2.781359806E+02  3.347297554E+02  7.334088068E-01 
       110  5.034733117E-02  1.734133857E-01  5.212084081E-02  9.488411328E+04  2.576883335E+02  3.371491089E+02  2.830718117E+02  3.181859436E+02  7.172134407E-01 
       111  5.258765486E-02  1.728405975E-01  5.464144749E-02  9.878002490E+04  2.575977936E+02  3.390329227E+02  2.862399940E+02  3.080338020E+02  7.011002377E-01 
       112  5.479076840E-02  1.722430532E-01  5.718902978E-02  1.016396743E+05  2.578601894E+02  3.404624701E+02  2.886583443E+02  3.009589148E+02  6.893469952E-01 
       113  5.694737683E-02  1.716020731E-01  5.976586917E-02  1.047136040E+05  2.571948767E+02  3.419019842E+02  2.911043069E+02  2.922520266E+02  6.790973241E-01 
       114  5.911848447E-02  1.709340834E-01  6.233872565E-02  1.081682242E+05  2.553807510E+02  3.434157301E+02  2.936871503E+02  2.833432320E+02  6.731266163E-01 
       115  6.119351897E-02  1.703313828E-01  6.496775561E-02  1.110270476E+05  2.541003218E+02  3.446157207E+02  2.957429261E+02  2.759632940E+02  6.683959477E-01 
       116  6.319798910E-02  1.696485115E-01  6.765543605E-02  1.131737418E+05  2.533286686E+02  3.455075359E+02  2.972753072E+02  2.697963123E+02  6.635188814E-01 
       117  6.520189851E-02  1.689621155E-01  7.034628384E-02  1.150886040E+05  2.523291330E+02  3.463463335E+02  2.987203693E+02  2.656190615E+02  6.625760607E-01 
       118  6.717992039E-02  1.682884043E-01  7.305807409E-02  1.167958408E+05  2.518812685E+02  3.470990191E+02  3.000199623E+02  2.619331675E+02  6.600528769E-01 
       119  6.910755662E-02  1.675987334E-01  7.579818779E-02  1.183823831E+05  2.509820025E+02  3.477345443E+02  3.011194561E+02  2.580246804E+02  6.595453429E-01 
       120  7.101404689E-02  1.668389198E-01  7.852135391E-02  1.194664124E+05  2.475494196E+02  3.483168457E+02  3.021289659E+02  2.543797734E+02  6.694627404E-01 
