nodenumber     x-coordinate     y-coordinate     z-coordinate         pressure velocity-magnitude      sound-speed      temperature rel-velocity-magnitude relative-velocity-angle 
         1 -2.216901913E-02  1.039879580E-01 -4.300600202E-02  8.755396745E+04  1.539529234E+02  3.330526314E+02  2.762285371E+02  2.357982366E+02  8.594417621E-01 
         2 -2.197401757E-02  1.042260031E-01 -4.002397295E-02  8.747418054E+04  1.544350163E+02  3.330097454E+02  2.761574306E+02  2.363450239E+02  8.589232049E-01 
         3 -2.150271627E-02  1.045375264E-01 -3.708169353E-02  8.737027325E+04  1.550536675E+02  3.329535458E+02  2.760642173E+02  2.370133203E+02  8.581819511E-01 
         4 -2.072290556E-02  1.049359494E-01 -3.421635317E-02  8.725448425E+04  1.557379217E+02  3.328924456E+02  2.759629326E+02  2.377464960E+02  8.573806453E-01 
         5 -1.964621854E-02  1.053757771E-01 -3.145501365E-02  8.712987305E+04  1.564322600E+02  3.328284092E+02  2.758567500E+02  2.385021873E+02  8.566530664E-01 
         6 -1.833909717E-02  1.058829391E-01 -2.880182754E-02  8.698045630E+04  1.571920190E+02  3.327513285E+02  2.757289915E+02  2.394130483E+02  8.561617024E-01 
         7 -1.686396899E-02  1.064019756E-01 -2.624136390E-02  8.679954248E+04  1.580359292E+02  3.326564560E+02  2.755718107E+02  2.404313288E+02  8.556294944E-01 
         8 -1.524276490E-02  1.069101094E-01 -2.376908005E-02  8.658191382E+04  1.590360119E+02  3.325399809E+02  2.753788729E+02  2.415863085E+02  8.547714557E-01 
         9 -1.353040875E-02  1.074492491E-01 -2.136449246E-02  8.634014050E+04  1.602565331E+02  3.324092073E+02  2.751622796E+02  2.428973567E+02  8.533078702E-01 
        10 -1.175719847E-02  1.079385502E-01 -1.899452623E-02  8.613584576E+04  1.615649028E+02  3.322977140E+02  2.749777629E+02  2.440313885E+02  8.507774826E-01 
        11 -9.920451205E-03  1.084473482E-01 -1.667649769E-02  8.606359839E+04  1.627172891E+02  3.322574794E+02  2.749111596E+02  2.447633209E+02  8.476787340E-01 
        12 -8.053093039E-03  1.089314126E-01 -1.437870322E-02  8.624619489E+04  1.632051128E+02  3.323558910E+02  2.750740721E+02  2.444817635E+02  8.446074380E-01 
        13 -6.139911673E-03  1.093816015E-01 -1.211111235E-02  8.676373828E+04  1.625344105E+02  3.326346998E+02  2.755357628E+02  2.429690914E+02  8.435351588E-01 
        14 -4.213714023E-03  1.098625599E-01 -9.853315987E-03  8.759451563E+04  1.603228722E+02  3.330833282E+02  2.762795525E+02  2.402932739E+02  8.469690494E-01 
        15 -2.267252226E-03  1.102821410E-01 -7.616721013E-03  8.856175049E+04  1.562143230E+02  3.335991096E+02  2.771358995E+02  2.370465212E+02  8.591222018E-01 
        16 -3.058463972E-04  1.106716081E-01 -5.380345181E-03  8.925622314E+04  1.499971347E+02  3.339272585E+02  2.776815367E+02  2.347660117E+02  8.863735087E-01 
        17  1.649896870E-03  1.110991589E-01 -3.144821902E-03  8.748619800E+04  1.456954293E+02  3.330912404E+02  2.762943301E+02  2.422505946E+02  9.360924447E-01 
        18  3.605378217E-03  1.114680886E-01 -8.997268064E-04  7.508727502E+04  1.762390420E+02  3.258804517E+02  2.644604435E+02  2.873747640E+02  9.415533543E-01 
        19  5.548952344E-03  1.118349081E-01  1.356589372E-03  7.050471783E+04  2.057349411E+02  3.230319324E+02  2.598581069E+02  3.046322103E+02  8.522801222E-01 
        20  7.472030685E-03  1.121892539E-01  3.633809071E-03  7.288534108E+04  2.101530430E+02  3.244423664E+02  2.621341171E+02  2.959446977E+02  7.920534504E-01 
        21  9.366594022E-03  1.125505666E-01  5.932977735E-03  7.611742334E+04  2.085193957E+02  3.264385998E+02  2.653697922E+02  2.848665860E+02  7.570549110E-01 
        22  1.122147558E-02  1.129077905E-01  8.263617067E-03  7.857471703E+04  2.085374656E+02  3.279547798E+02  2.678394861E+02  2.766746104E+02  7.263974061E-01 
        23  1.303284284E-02  1.132507638E-01  1.062953057E-02  8.035104495E+04  2.107763545E+02  3.290338263E+02  2.696039862E+02  2.711268019E+02  6.949775072E-01 
        24  1.479928419E-02  1.136234762E-01  1.303021626E-02  8.160601332E+04  2.150430191E+02  3.297720160E+02  2.708145872E+02  2.673728266E+02  6.598009025E-01 
        25  1.649617427E-02  1.139938279E-01  1.547769530E-02  8.254718457E+04  2.202613986E+02  3.303128159E+02  2.717032738E+02  2.646568556E+02  6.235416480E-01 
        26  1.811807173E-02  1.143837002E-01  1.797032872E-02  8.317295923E+04  2.261568937E+02  3.306895432E+02  2.723230152E+02  2.632666245E+02  5.887249568E-01 
        27  1.968166241E-02  1.148013513E-01  2.049621310E-02  8.334312952E+04  2.332197740E+02  3.308429272E+02  2.725754890E+02  2.637752950E+02  5.547923194E-01 
        28  2.119101764E-02  1.152299366E-01  2.305322148E-02  8.297991713E+04  2.417255476E+02  3.307200551E+02  2.723732086E+02  2.661730951E+02  5.200933120E-01 
        29  2.266338778E-02  1.156643914E-01  2.563116057E-02  8.242676978E+04  2.503759240E+02  3.304758520E+02  2.719714344E+02  2.689807166E+02  4.861800245E-01 
        30  2.408077791E-02  1.161159634E-01  2.823658064E-02  8.185905914E+04  2.586605129E+02  3.302300961E+02  2.715675852E+02  2.718192832E+02  4.545649341E-01 
        31  2.544088325E-02  1.165921105E-01  3.086849856E-02  8.126568872E+04  2.667891183E+02  3.299656105E+02  2.711333330E+02  2.748304253E+02  4.247055235E-01 
        32  2.674433127E-02  1.170738851E-01  3.352942364E-02  8.069226196E+04  2.747380416E+02  3.296915584E+02  2.706836448E+02  2.777973368E+02  3.958298122E-01 
        33  2.797950643E-02  1.175445507E-01  3.622298897E-02  8.020316537E+04  2.825021284E+02  3.294322478E+02  2.702583486E+02  2.804474205E+02  3.667923760E-01 
        34  2.916313541E-02  1.180056499E-01  3.893937175E-02  7.992934363E+04  2.896850909E+02  3.292308955E+02  2.699282700E+02  2.822699236E+02  3.376406744E-01 
        35  3.031249539E-02  1.184785399E-01  4.167042727E-02  8.000566028E+04  2.955823882E+02  3.291387649E+02  2.697771227E+02  2.827917598E+02  3.102956011E-01 
        36  3.139929926E-02  1.189405785E-01  4.442941843E-02  8.029918604E+04  3.010186095E+02  3.291727135E+02  2.698322424E+02  2.827201031E+02  2.829603514E-01 
        37  3.242013936E-02  1.193808800E-01  4.721660669E-02  8.093051503E+04  3.057665650E+02  3.293151651E+02  2.700650650E+02  2.814119253E+02  2.541340384E-01 
        38  3.340677803E-02  1.198011670E-01  5.002067675E-02  8.214254828E+04  3.085999639E+02  3.299219261E+02  2.710609711E+02  2.780875081E+02  2.273153283E-01 
        39  3.430413654E-02  1.201853153E-01  5.285529857E-02  8.371994482E+04  3.103318806E+02  3.308609877E+02  2.726067247E+02  2.735156422E+02  2.013339903E-01 
        40  3.515433510E-02  1.205874318E-01  5.570324370E-02  8.565212207E+04  3.106386642E+02  3.319493027E+02  2.744036121E+02  2.676954498E+02  1.781061301E-01 
        41  3.592907297E-02  1.209644065E-01  5.857535950E-02  8.783651489E+04  3.095678468E+02  3.331044769E+02  2.763170228E+02  2.609468637E+02  1.588143623E-01 
        42  3.664355424E-02  1.213334730E-01  6.146049591E-02  9.012157336E+04  3.071630898E+02  3.342920628E+02  2.782906399E+02  2.537311730E+02  1.453705432E-01 
        43  3.727845098E-02  1.217084379E-01  6.437276718E-02  9.227773560E+04  3.038408756E+02  3.354787388E+02  2.802695141E+02  2.467936888E+02  1.387281418E-01 
        44  3.781448665E-02  1.220744111E-01  6.730672953E-02  9.407939697E+04  3.003473730E+02  3.364997959E+02  2.819774084E+02  2.410569324E+02  1.384887630E-01 
        45  3.826762164E-02  1.224563704E-01  7.025293559E-02  9.538128864E+04  2.976505826E+02  3.372169168E+02  2.831799181E+02  2.373795818E+02  1.424011197E-01 
        46  3.856443464E-02  1.228195695E-01  7.317567491E-02  9.612545703E+04  2.963942871E+02  3.375687103E+02  2.837706985E+02  2.363104248E+02  1.484016515E-01 
        47  3.882754171E-02  1.231963568E-01  7.616928387E-02  9.636074832E+04  2.947999109E+02  3.381030722E+02  2.846718453E+02  2.339411947E+02  1.516767126E-01 
        48  3.896508106E-02  1.235573809E-01  7.913505459E-02  9.629835156E+04  2.904535637E+02  3.391531677E+02  2.864545174E+02  2.265198364E+02  1.529329047E-01 
        49  3.903512947E-02  1.239238609E-01  8.213137167E-02  9.616104089E+04  2.822164598E+02  3.408970776E+02  2.894271269E+02  2.121266072E+02  1.556936256E-01 
        50  3.900153017E-02  1.243001337E-01  8.510504302E-02  9.607531494E+04  2.690087075E+02  3.436610301E+02  2.941490553E+02  1.887755674E+02  1.584232510E-01 
        51  3.889299026E-02  1.246700891E-01  8.806950082E-02  9.637447327E+04  2.533487511E+02  3.472047298E+02  3.002537966E+02  1.532840068E+02  1.498855683E-01 
        52  3.870303970E-02  1.250405990E-01  9.105247242E-02  9.681956494E+04  2.449484792E+02  3.502199616E+02  3.054697261E+02  1.192537185E+02  7.324700870E-02 
        53  3.847530202E-02  1.253810613E-01  9.402032493E-02  9.752879697E+04  2.449978201E+02  3.520575879E+02  3.086759634E+02  8.724988207E+01 -2.338208631E-01 
        54  3.809583015E-02  1.257752167E-01  9.695318516E-02  9.974605078E+04  2.412570877E+02  3.533173294E+02  3.108771400E+02  6.044168091E+01 -5.413586497E-01 
        55  3.767199372E-02  1.261489404E-01  9.992435767E-02  1.022567388E+05  2.394195995E+02  3.541145267E+02  3.122727928E+02  5.366244805E+01 -4.106047694E-01 
        56  3.723780727E-02  1.265196365E-01  1.028569506E-01  1.044125146E+05  2.369540810E+02  3.538291878E+02  3.117690464E+02  6.398083772E+01 -1.470329350E-01 
        57  3.672955052E-02  1.269046997E-01  1.057947981E-01  1.058328810E+05  2.365986583E+02  3.523015723E+02  3.090885110E+02  9.051607382E+01  3.107553982E-02 
        58  3.615520807E-02  1.273091289E-01  1.087154776E-01  1.067758508E+05  2.414690962E+02  3.497517481E+02  3.046369038E+02  1.254704356E+02  1.293716612E-01 
        59  3.556812424E-02  1.277144368E-01  1.116309472E-01  1.073366699E+05  2.513591573E+02  3.468191094E+02  2.995481036E+02  1.593950311E+02  1.728010980E-01 
        60  3.495651588E-02  1.281329458E-01  1.145394580E-01  1.076859341E+05  2.615080390E+02  3.445115585E+02  2.955688128E+02  1.836640296E+02  1.879752255E-01 
        61  3.433795015E-02  1.285471243E-01  1.174457346E-01  1.078458190E+05  2.680461895E+02  3.433243899E+02  2.935306873E+02  1.961324532E+02  1.908450942E-01 
        62  3.376061330E-02  1.289460490E-01  1.203607660E-01  1.079144459E+05  2.709946513E+02  3.430002654E+02  2.929759011E+02  2.003397024E+02  1.888965771E-01 
        63  3.331803132E-02  1.293309423E-01  1.232882868E-01  1.079393171E+05  2.722878637E+02  3.430135982E+02  2.929986298E+02  2.012946602E+02  1.861729766E-01 
        64  3.310586596E-02  1.296649637E-01  1.262581306E-01  1.078883630E+05  2.732114182E+02  3.430475478E+02  2.930566306E+02  2.016249468E+02  1.835839915E-01 
        65  3.306639982E-02  1.299493947E-01  1.292495641E-01  1.077799807E+05  2.740620229E+02  3.430394754E+02  2.930428868E+02  2.020220972E+02  1.816799025E-01 
        66  3.322486525E-02  1.302097713E-01  1.322380794E-01  1.076316604E+05  2.749664449E+02  3.429916680E+02  2.929611493E+02  2.027606047E+02  1.808501323E-01 
        67  3.356462385E-02  1.304573038E-01  1.352130229E-01  1.074603041E+05  2.759333487E+02  3.429233734E+02  2.928445280E+02  2.038490524E+02  1.812315650E-01 
        68  3.400410102E-02  1.306751199E-01  1.381765647E-01  1.072475375E+05  2.769603508E+02  3.428314762E+02  2.926875618E+02  2.051837103E+02  1.820298240E-01 
        69  3.451963359E-02  1.308741206E-01  1.411278790E-01  1.070059771E+05  2.780143390E+02  3.427281117E+02  2.925110769E+02  2.066674197E+02  1.832533900E-01 
        70  3.508991352E-02  1.310576265E-01  1.440660380E-01  1.067297667E+05  2.790818141E+02  3.426151390E+02  2.923182721E+02  2.082312233E+02  1.847069575E-01 
        71  3.570211579E-02  1.312503676E-01  1.470000000E-01  1.063242861E+05  2.804942436E+02  3.424014511E+02  2.919551659E+02  2.103966026E+02  1.859830059E-01 
        72 -2.843361623E-02  1.708417341E-01 -4.258217492E-02  8.203690771E+04  1.838540950E+02  3.299728985E+02  2.711436481E+02  3.443602610E+02  1.007455353E+00 
        73 -2.838826984E-02  1.709653765E-01 -3.916427879E-02  8.200854761E+04  1.842434556E+02  3.299611223E+02  2.711243095E+02  3.445665698E+02  1.006498431E+00 
        74 -2.835908450E-02  1.711140563E-01 -3.574649433E-02  8.232748358E+04  1.839632926E+02  3.301466441E+02  2.714293084E+02  3.438631139E+02  1.006188408E+00 
        75 -2.838361088E-02  1.712589164E-01 -3.232950605E-02  8.304268652E+04  1.828269644E+02  3.305575724E+02  2.721055422E+02  3.420835171E+02  1.006906189E+00 
        76 -2.841360827E-02  1.714319125E-01 -2.891476756E-02  8.387856079E+04  1.812783356E+02  3.310330496E+02  2.728888025E+02  3.400060630E+02  1.008570509E+00 
        77 -2.833774301E-02  1.716334782E-01 -2.549995819E-02  8.445740146E+04  1.800353835E+02  3.313606852E+02  2.734291348E+02  3.386646500E+02  1.010536061E+00 
        78 -2.791452343E-02  1.719215161E-01 -2.212016887E-02  8.464218994E+04  1.793507090E+02  3.314570160E+02  2.735882092E+02  3.384980488E+02  1.012645334E+00 
        79 -2.700703325E-02  1.722886754E-01 -1.884820631E-02  8.430903589E+04  1.794613180E+02  3.312639723E+02  2.732696800E+02  3.397386379E+02  1.014452353E+00 
        80 -2.544395246E-02  1.727209334E-01 -1.584518523E-02  8.312883167E+04  1.812360462E+02  3.305956357E+02  2.721683133E+02  3.432615721E+02  1.014581698E+00 
        81 -2.351536464E-02  1.732363399E-01 -1.306823492E-02  8.103527440E+04  1.854046563E+02  3.293953605E+02  2.701959618E+02  3.493639825E+02  1.011403792E+00 
        82 -2.134527601E-02  1.737374909E-01 -1.047435973E-02  7.815548210E+04  1.922481769E+02  3.277082959E+02  2.674357290E+02  3.576522666E+02  1.003753820E+00 
        83 -1.897326710E-02  1.742189522E-01 -8.035177519E-03  7.516430225E+04  2.003966507E+02  3.258901503E+02  2.644763360E+02  3.662613736E+02  9.930428741E-01 
        84 -1.652827274E-02  1.746780172E-01 -5.688541800E-03  7.306029718E+04  2.068459358E+02  3.245511532E+02  2.623070574E+02  3.723732419E+02  9.835929647E-01 
        85 -1.397929867E-02  1.751251779E-01 -3.446989688E-03  7.245832227E+04  2.097292585E+02  3.241774826E+02  2.617031131E+02  3.743244009E+02  9.778024908E-01 
        86 -1.139011487E-02  1.755573757E-01 -1.256774906E-03  7.421666382E+04  2.082633262E+02  3.252938342E+02  2.635105553E+02  3.697533264E+02  9.732933976E-01 
        87 -8.734274343E-03  1.759085237E-01  8.667805443E-04  7.956905798E+04  2.020721821E+02  3.285633340E+02  2.688393800E+02  3.551808174E+02  9.660534374E-01 
        88 -6.073383534E-03  1.762548475E-01  2.984781313E-03  8.946880847E+04  1.904439280E+02  3.339521134E+02  2.777295494E+02  3.286707382E+02  9.614129229E-01 
        89 -3.359730182E-03  1.765819110E-01  5.053045394E-03  9.827358258E+04  1.757979385E+02  3.384639497E+02  2.852798871E+02  3.046884077E+02  9.801691580E-01 
        90 -6.741955509E-04  1.768270807E-01  7.130208361E-03  9.877481401E+04  1.630655693E+02  3.389237971E+02  2.860558679E+02  3.038469707E+02  1.023940486E+00 
        91  2.027043660E-03  1.770783858E-01  9.208570588E-03  7.786089220E+04  1.954929976E+02  3.274937853E+02  2.670900868E+02  3.606011525E+02  9.986401288E-01 
        92  4.731686997E-03  1.772422585E-01  1.127155269E-02  7.239471227E+04  2.138653505E+02  3.241791732E+02  2.617067733E+02  3.772303339E+02  9.693688826E-01 
        93  7.454465044E-03  1.773874983E-01  1.334309669E-02  7.314975957E+04  2.086549628E+02  3.245181245E+02  2.622547204E+02  3.736898522E+02  9.795207016E-01 
        94  1.015989937E-02  1.775222933E-01  1.545596277E-02  7.018164981E+04  2.176050696E+02  3.227860695E+02  2.594670056E+02  3.826941094E+02  9.682204587E-01 
        95  1.284858280E-02  1.775661421E-01  1.756817794E-02  6.678544308E+04  2.285083393E+02  3.205083991E+02  2.558193340E+02  3.930677369E+02  9.539971133E-01 
        96  1.551966693E-02  1.776138061E-01  1.970369132E-02  6.388317712E+04  2.375583286E+02  3.184608626E+02  2.525607493E+02  4.016148691E+02  9.427371724E-01 
        97  1.817410325E-02  1.776258069E-01  2.186017323E-02  6.151126123E+04  2.458716042E+02  3.167055793E+02  2.497839661E+02  4.088146496E+02  9.314333145E-01 
        98  2.080993586E-02  1.775631240E-01  2.403936301E-02  5.987142236E+04  2.529897432E+02  3.154995232E+02  2.478822594E+02  4.137174339E+02  9.190324321E-01 
        99  2.341570779E-02  1.774969016E-01  2.625394818E-02  5.963055994E+04  2.573665004E+02  3.154111834E+02  2.477436776E+02  4.146616058E+02  9.065692220E-01 
       100  2.600295182E-02  1.773818036E-01  2.848806157E-02  6.222818604E+04  2.571934042E+02  3.172933016E+02  2.507336063E+02  4.079157200E+02  8.920477703E-01 
       101  2.856627515E-02  1.771883875E-01  3.074502562E-02  6.875671533E+04  2.506741657E+02  3.216905575E+02  2.577700167E+02  3.895454636E+02  8.743527122E-01 
       102  3.110662233E-02  1.769811535E-01  3.302644514E-02  7.643229614E+04  2.436515274E+02  3.266382208E+02  2.657399855E+02  3.672750578E+02  8.519552313E-01 
       103  3.362247542E-02  1.767159818E-01  3.532849163E-02  8.070140820E+04  2.438984842E+02  3.293748751E+02  2.701718183E+02  3.551301613E+02  8.270561174E-01 
       104  3.610895472E-02  1.763647845E-01  3.765120331E-02  8.057887402E+04  2.506803467E+02  3.293908911E+02  2.701905375E+02  3.565345736E+02  8.068773402E-01 
       105  3.856497337E-02  1.759966372E-01  4.000321012E-02  7.863532822E+04  2.586598101E+02  3.282574064E+02  2.683335868E+02  3.627906822E+02  7.919162996E-01 
       106  4.103059304E-02  1.755360248E-01  4.234569910E-02  7.748138476E+04  2.646562661E+02  3.276569512E+02  2.673512585E+02  3.658995088E+02  7.777183440E-01 
       107  4.340106546E-02  1.750377176E-01  4.474435622E-02  7.945832484E+04  2.663264858E+02  3.287669330E+02  2.691708477E+02  3.611417025E+02  7.631063196E-01 
       108  4.575540032E-02  1.745445103E-01  4.717695363E-02  8.497250500E+04  2.624302175E+02  3.317881784E+02  2.741482260E+02  3.461519389E+02  7.488416787E-01 
       109  4.807037784E-02  1.739953488E-01  4.963532790E-02  9.093160425E+04  2.584783382E+02  3.350435772E+02  2.795489731E+02  3.290357819E+02  7.322546467E-01 
       110  5.034733117E-02  1.734133857E-01  5.212084081E-02  9.502084521E+04  2.581086712E+02  3.372268410E+02  2.831988182E+02  3.181589069E+02  7.152776532E-01 
       111  5.258765486E-02  1.728405975E-01  5.464144749E-02  9.813519287E+04  2.587335358E+02  3.388008156E+02  2.858480034E+02  3.105050144E+02  7.008895315E-01 
       112  5.479076840E-02  1.722430532E-01  5.718902978E-02  1.012992119E+05  2.585433893E+02  3.403286772E+02  2.884317179E+02  3.021647272E+02  6.887183171E-01 
       113  5.694737683E-02  1.716020731E-01  5.976586917E-02  1.044572968E+05  2.579801548E+02  3.418176074E+02  2.909602325E+02  2.935465214E+02  6.778852446E-01 
       114  5.911848447E-02  1.709340834E-01  6.233872565E-02  1.074169759E+05  2.572787471E+02  3.431843253E+02  2.932911429E+02  2.855537643E+02  6.690036538E-01 
       115  6.119351897E-02  1.703313828E-01  6.496775561E-02  1.100747854E+05  2.565171647E+02  3.443767614E+02  2.953328199E+02  2.785027819E+02  6.624361556E-01 
       116  6.319798910E-02  1.696485115E-01  6.765543605E-02  1.124913451E+05  2.557579284E+02  3.454366336E+02  2.971530900E+02  2.719404140E+02  6.566742808E-01 
       117  6.520189851E-02  1.689621155E-01  7.034628384E-02  1.147577759E+05  2.548800507E+02  3.464174500E+02  2.988428288E+02  2.658429337E+02  6.525538974E-01 
       118  6.717992039E-02  1.682884043E-01  7.305807409E-02  1.172519575E+05  2.532759848E+02  3.474976940E+02  3.007094278E+02  2.592888813E+02  6.512802914E-01 
       119  6.910755662E-02  1.675987334E-01  7.579818779E-02  1.194687021E+05  2.500174029E+02  3.484010704E+02  3.022750585E+02  2.537471321E+02  6.586956005E-01 
       120  7.101404689E-02  1.668389198E-01  7.852135391E-02  1.208230207E+05  2.456292489E+02  3.489747148E+02  3.032715385E+02  2.510071961E+02  6.738757999E-01 
