nodenumber     x-coordinate     y-coordinate     z-coordinate         pressure velocity-magnitude      sound-speed      temperature rel-velocity-magnitude relative-velocity-angle 
         1 -2.216901913E-02  1.039879580E-01 -4.300600202E-02  8.757081686E+04  1.535147531E+02  3.330908484E+02  2.762920285E+02  2.353078400E+02  8.601643576E-01 
         2 -2.197401757E-02  1.042260031E-01 -4.002397295E-02  8.749425684E+04  1.544561547E+02  3.330138601E+02  2.761643438E+02  2.364669045E+02  8.593097678E-01 
         3 -2.150271627E-02  1.045375264E-01 -3.708169353E-02  8.737856512E+04  1.550196693E+02  3.329592741E+02  2.760738409E+02  2.370120616E+02  8.584443806E-01 
         4 -2.072290556E-02  1.049359494E-01 -3.421635317E-02  8.724160620E+04  1.557142575E+02  3.328916650E+02  2.759617562E+02  2.375487697E+02  8.569155047E-01 
         5 -1.964621854E-02  1.053757771E-01 -3.145501365E-02  8.711318359E+04  1.564393940E+02  3.328222046E+02  2.758465891E+02  2.384338675E+02  8.565386254E-01 
         6 -1.833909717E-02  1.058829391E-01 -2.880182754E-02  8.698076099E+04  1.573116112E+02  3.327405500E+02  2.757112398E+02  2.395435052E+02  8.560844753E-01 
         7 -1.686396899E-02  1.064019756E-01 -2.624136390E-02  8.679628174E+04  1.580558472E+02  3.326462393E+02  2.755550032E+02  2.404431143E+02  8.555992767E-01 
         8 -1.524276490E-02  1.069101094E-01 -2.376908005E-02  8.657808362E+04  1.590977421E+02  3.325271063E+02  2.753576889E+02  2.416448879E+02  8.546829727E-01 
         9 -1.353040875E-02  1.074492491E-01 -2.136449246E-02  8.630158752E+04  1.602145493E+02  3.323917046E+02  2.751334453E+02  2.427594151E+02  8.531003408E-01 
        10 -1.175719847E-02  1.079385502E-01 -1.899452623E-02  8.610308618E+04  1.613000717E+02  3.323005095E+02  2.749824417E+02  2.436537347E+02  8.508926714E-01 
        11 -9.920451205E-03  1.084473482E-01 -1.667649769E-02  8.605291211E+04  1.626348209E+02  3.322558814E+02  2.749086279E+02  2.448435411E+02  8.485050385E-01 
        12 -8.053093039E-03  1.089314126E-01 -1.437870322E-02  8.621066626E+04  1.635698510E+02  3.322965355E+02  2.749759284E+02  2.448588352E+02  8.439961071E-01 
        13 -6.139911673E-03  1.093816015E-01 -1.211111235E-02  8.668379004E+04  1.628176298E+02  3.325765705E+02  2.754395103E+02  2.433848605E+02  8.434531968E-01 
        14 -4.213714023E-03  1.098625599E-01 -9.853315987E-03  8.756565967E+04  1.603331995E+02  3.330675354E+02  2.762533970E+02  2.404336987E+02  8.474764600E-01 
        15 -2.267252226E-03  1.102821410E-01 -7.616721013E-03  8.867142920E+04  1.559464703E+02  3.336644783E+02  2.772447033E+02  2.367519445E+02  8.598233946E-01 
        16 -3.058463972E-04  1.106716081E-01 -5.380345181E-03  8.941763623E+04  1.494158368E+02  3.340445633E+02  2.778768978E+02  2.342580023E+02  8.881062753E-01 
        17  1.649896870E-03  1.110991589E-01 -3.144821902E-03  8.729141431E+04  1.463285123E+02  3.328865986E+02  2.759543538E+02  2.409976730E+02  9.309238940E-01 
        18  3.605378217E-03  1.114680886E-01 -8.997268064E-04  7.563635095E+04  1.778023965E+02  3.261970639E+02  2.649757953E+02  2.895023346E+02  9.426444098E-01 
        19  5.548952344E-03  1.118349081E-01  1.356589372E-03  7.006390723E+04  2.054988539E+02  3.231433694E+02  2.600383303E+02  3.030573969E+02  8.465513680E-01 
        20  7.472030685E-03  1.121892539E-01  3.633809071E-03  7.294915349E+04  2.124961879E+02  3.246603670E+02  2.624876351E+02  2.981599463E+02  7.891274362E-01 
        21  9.366594022E-03  1.125505666E-01  5.932977735E-03  7.667992950E+04  2.083396930E+02  3.270788782E+02  2.664131560E+02  2.847706361E+02  7.578865648E-01 
        22  1.122147558E-02  1.129077905E-01  8.263617067E-03  7.910972383E+04  2.074006419E+02  3.285968407E+02  2.688888913E+02  2.751731327E+02  7.271401393E-01 
        23  1.303284284E-02  1.132507638E-01  1.062953057E-02  8.061410658E+04  2.102625068E+02  3.294243834E+02  2.702437875E+02  2.698283985E+02  6.934802473E-01 
        24  1.479928419E-02  1.136234762E-01  1.303021626E-02  8.176909218E+04  2.148115460E+02  3.300474459E+02  2.712675639E+02  2.669675080E+02  6.599442202E-01 
        25  1.649617427E-02  1.139938279E-01  1.547769530E-02  8.279851196E+04  2.194363449E+02  3.305893161E+02  2.721589217E+02  2.640095637E+02  6.257832316E-01 
        26  1.811807173E-02  1.143837002E-01  1.797032872E-02  8.346820947E+04  2.250766146E+02  3.308544488E+02  2.725953903E+02  2.623471379E+02  5.915661780E-01 
        27  1.968166241E-02  1.148013513E-01  2.049621310E-02  8.348641846E+04  2.326062858E+02  3.307525346E+02  2.724277027E+02  2.632572026E+02  5.567796910E-01 
        28  2.119101764E-02  1.152299366E-01  2.305322148E-02  8.295967789E+04  2.411196567E+02  3.304794433E+02  2.719778555E+02  2.656870469E+02  5.216672512E-01 
        29  2.266338778E-02  1.156643914E-01  2.563116057E-02  8.238210278E+04  2.499805197E+02  3.301169858E+02  2.713820726E+02  2.682580448E+02  4.860197904E-01 
        30  2.408077791E-02  1.161159634E-01  2.823658064E-02  8.188708905E+04  2.585203900E+02  3.297615073E+02  2.707977803E+02  2.715142102E+02  4.544749265E-01 
        31  2.544088325E-02  1.165921105E-01  3.086849856E-02  8.133814319E+04  2.666525095E+02  3.294246368E+02  2.702448649E+02  2.750080724E+02  4.260658138E-01 
        32  2.674433127E-02  1.170738851E-01  3.352942364E-02  8.072889197E+04  2.744319720E+02  3.291467719E+02  2.697890713E+02  2.780932381E+02  3.983161901E-01 
        33  2.797950643E-02  1.175445507E-01  3.622298897E-02  8.017043588E+04  2.822930553E+02  3.289097465E+02  2.694003094E+02  2.806708019E+02  3.684766439E-01 
        34  2.916313541E-02  1.180056499E-01  3.893937175E-02  7.988749969E+04  2.901785537E+02  3.287372430E+02  2.691176563E+02  2.826606330E+02  3.362807355E-01 
        35  3.031249539E-02  1.184785399E-01  4.167042727E-02  8.000307916E+04  2.967414291E+02  3.287740219E+02  2.691779308E+02  2.834429642E+02  3.064060006E-01 
        36  3.139929926E-02  1.189405785E-01  4.442941843E-02  8.025087076E+04  3.021166598E+02  3.289869571E+02  2.695265472E+02  2.833186485E+02  2.792404450E-01 
        37  3.242013936E-02  1.193808800E-01  4.721660669E-02  8.078616192E+04  3.071992566E+02  3.293030122E+02  2.700444846E+02  2.826677943E+02  2.512970425E-01 
        38  3.340677803E-02  1.198011670E-01  5.002067675E-02  8.208777692E+04  3.098005717E+02  3.300437171E+02  2.712613744E+02  2.791625876E+02  2.250843445E-01 
        39  3.430413654E-02  1.201853153E-01  5.285529857E-02  8.382705566E+04  3.107254887E+02  3.310586166E+02  2.729327745E+02  2.739159870E+02  2.007817104E-01 
        40  3.515433510E-02  1.205874318E-01  5.570324370E-02  8.594620459E+04  3.104665070E+02  3.322235603E+02  2.748574028E+02  2.675009499E+02  1.783320960E-01 
        41  3.592907297E-02  1.209644065E-01  5.857535950E-02  8.830047192E+04  3.088575568E+02  3.334689188E+02  2.769221201E+02  2.601596875E+02  1.597360214E-01 
        42  3.664355424E-02  1.213334730E-01  6.146049591E-02  9.072450879E+04  3.058313780E+02  3.346792212E+02  2.789357362E+02  2.523449965E+02  1.474901589E-01 
        43  3.727845098E-02  1.217084379E-01  6.437276718E-02  9.297500928E+04  3.020275297E+02  3.357579346E+02  2.807360620E+02  2.450838604E+02  1.424654387E-01 
        44  3.781448665E-02  1.220744111E-01  6.730672953E-02  9.478369116E+04  2.983643894E+02  3.366626616E+02  2.822503185E+02  2.393849063E+02  1.435804754E-01 
        45  3.826762164E-02  1.224563704E-01  7.025293559E-02  9.599540863E+04  2.956353176E+02  3.373213634E+02  2.833554432E+02  2.357102807E+02  1.478772936E-01 
        46  3.856443464E-02  1.228195695E-01  7.317567491E-02  9.664585938E+04  2.937452545E+02  3.377943726E+02  2.841510773E+02  2.335896530E+02  1.535412073E-01 
        47  3.882754171E-02  1.231963568E-01  7.616928387E-02  9.688178391E+04  2.919258909E+02  3.384703695E+02  2.852908646E+02  2.315100318E+02  1.594663878E-01 
        48  3.896508106E-02  1.235573809E-01  7.913505459E-02  9.682847266E+04  2.880664139E+02  3.395488281E+02  2.871257515E+02  2.250851593E+02  1.635274738E-01 
        49  3.903512947E-02  1.239238609E-01  8.213137167E-02  9.665463025E+04  2.777006316E+02  3.417097216E+02  2.908190999E+02  2.073083947E+02  1.753077258E-01 
        50  3.900153017E-02  1.243001337E-01  8.510504302E-02  9.630905923E+04  2.612100457E+02  3.450019443E+02  2.964596392E+02  1.758213581E+02  1.809000496E-01 
        51  3.889299026E-02  1.246700891E-01  8.806950082E-02  9.595408319E+04  2.436092031E+02  3.486492355E+02  3.027541487E+02  1.302167184E+02  1.666778526E-01 
        52  3.870303970E-02  1.250405990E-01  9.105247242E-02  9.588575488E+04  2.374898939E+02  3.509572778E+02  3.067482362E+02  8.915715003E+01  2.172546822E-02 
        53  3.847530202E-02  1.253810613E-01  9.402032493E-02  9.634582474E+04  2.388899374E+02  3.520957969E+02  3.087359289E+02  5.466974249E+01 -5.231544529E-01 
        54  3.809583015E-02  1.257752167E-01  9.695318516E-02  9.764144043E+04  2.380922050E+02  3.530979996E+02  3.104866257E+02  4.024052238E+01 -1.618606433E+00 
        55  3.767199372E-02  1.261489404E-01  9.992435767E-02  9.849160107E+04  2.458796039E+02  3.525201340E+02  3.094686642E+02  4.672957671E+01 -1.935254235E+00 
        56  3.723780727E-02  1.265196365E-01  1.028569506E-01  9.978634332E+04  2.472586763E+02  3.510214887E+02  3.068422318E+02  6.727244096E+01 -1.071085706E+00 
        57  3.672955052E-02  1.269046997E-01  1.057947981E-01  1.019759619E+05  2.337717834E+02  3.496325641E+02  3.044187894E+02  1.056348059E+02  7.171800264E-02 
        58  3.615520807E-02  1.273091289E-01  1.087154776E-01  1.050003855E+05  2.303329792E+02  3.475534315E+02  3.008132772E+02  1.471345840E+02  3.006798783E-01 
        59  3.556812424E-02  1.277144368E-01  1.116309472E-01  1.073828235E+05  2.412187722E+02  3.455497370E+02  2.973534176E+02  1.747993574E+02  2.909176501E-01 
        60  3.495651588E-02  1.281329458E-01  1.145394580E-01  1.080704133E+05  2.564252887E+02  3.441928444E+02  2.950209389E+02  1.879741416E+02  2.341030845E-01 
        61  3.433795015E-02  1.285471243E-01  1.174457346E-01  1.079629596E+05  2.661970913E+02  3.433586245E+02  2.935900674E+02  1.949098485E+02  1.982623374E-01 
        62  3.376061330E-02  1.289460490E-01  1.203607660E-01  1.079978911E+05  2.685792534E+02  3.430964777E+02  2.931410055E+02  1.963676391E+02  1.901782455E-01 
        63  3.331803132E-02  1.293309423E-01  1.232882868E-01  1.081836487E+05  2.674759613E+02  3.431704673E+02  2.932670825E+02  1.947532241E+02  1.930351500E-01 
        64  3.310586596E-02  1.296649637E-01  1.262581306E-01  1.082346654E+05  2.685229721E+02  3.430553877E+02  2.930703173E+02  1.968482767E+02  1.956090102E-01 
        65  3.306639982E-02  1.299493947E-01  1.292495641E-01  1.081214055E+05  2.708222594E+02  3.428952713E+02  2.927968305E+02  1.997102479E+02  1.933520176E-01 
        66  3.322486525E-02  1.302097713E-01  1.322380794E-01  1.078608923E+05  2.726881840E+02  3.428354673E+02  2.926946397E+02  2.013258989E+02  1.897533739E-01 
        67  3.356462385E-02  1.304573038E-01  1.352130229E-01  1.075634499E+05  2.742038473E+02  3.428025903E+02  2.926385097E+02  2.029986953E+02  1.888926579E-01 
        68  3.400410102E-02  1.306751199E-01  1.381765647E-01  1.072859949E+05  2.758602035E+02  3.427101235E+02  2.924806476E+02  2.050040767E+02  1.882137742E-01 
        69  3.451963359E-02  1.308741206E-01  1.411278790E-01  1.070164519E+05  2.773018901E+02  3.425973854E+02  2.922881737E+02  2.069963391E+02  1.888430598E-01 
        70  3.508991352E-02  1.310576265E-01  1.440660380E-01  1.066914097E+05  2.786079118E+02  3.424692860E+02  2.920695996E+02  2.089857452E+02  1.903189407E-01 
        71  3.570211579E-02  1.312503676E-01  1.470000000E-01  1.062985654E+05  2.800347633E+02  3.423071327E+02  2.917915230E+02  2.111891804E+02  1.916097961E-01 
        72 -2.843361623E-02  1.708417341E-01 -4.258217492E-02  8.203040967E+04  1.838810401E+02  3.299486084E+02  2.711038828E+02  3.440407448E+02  1.006936185E+00 
        73 -2.838826984E-02  1.709653765E-01 -3.916427879E-02  8.213835229E+04  1.838775232E+02  3.300287747E+02  2.712358460E+02  3.445600801E+02  1.007998823E+00 
        74 -2.835908450E-02  1.711140563E-01 -3.574649433E-02  8.239615320E+04  1.838764602E+02  3.301485813E+02  2.714327853E+02  3.435777066E+02  1.006409532E+00 
        75 -2.838361088E-02  1.712589164E-01 -3.232950605E-02  8.287034302E+04  1.832218494E+02  3.304373217E+02  2.719078445E+02  3.431062479E+02  1.007768717E+00 
        76 -2.841360827E-02  1.714319125E-01 -2.891476756E-02  8.340786829E+04  1.821216226E+02  3.307521296E+02  2.724260378E+02  3.416042252E+02  1.008790402E+00 
        77 -2.833774301E-02  1.716334782E-01 -2.549995819E-02  8.383055066E+04  1.809405817E+02  3.310598664E+02  2.729330884E+02  3.395515947E+02  1.009210577E+00 
        78 -2.791452343E-02  1.719215161E-01 -2.212016887E-02  8.426912402E+04  1.804769173E+02  3.312272949E+02  2.732094107E+02  3.399351540E+02  1.011516500E+00 
        79 -2.700703325E-02  1.722886754E-01 -1.884820631E-02  8.431357324E+04  1.804967914E+02  3.311622019E+02  2.731022387E+02  3.401909561E+02  1.011966933E+00 
        80 -2.544395246E-02  1.727209334E-01 -1.584518523E-02  8.335642529E+04  1.810901372E+02  3.306968210E+02  2.723352034E+02  3.433135242E+02  1.015312191E+00 
        81 -2.351536464E-02  1.732363399E-01 -1.306823492E-02  8.134971852E+04  1.848222224E+02  3.295656830E+02  2.704753170E+02  3.485945473E+02  1.012109547E+00 
        82 -2.134527601E-02  1.737374909E-01 -1.047435973E-02  7.868116473E+04  1.909841703E+02  3.279697797E+02  2.678633087E+02  3.551198902E+02  1.003507016E+00 
        83 -1.897326710E-02  1.742189522E-01 -8.035177519E-03  7.564828848E+04  1.989038829E+02  3.261571697E+02  2.649115344E+02  3.638056957E+02  9.934983086E-01 
        84 -1.652827274E-02  1.746780172E-01 -5.688541800E-03  7.359820435E+04  2.056672075E+02  3.248687510E+02  2.628215942E+02  3.713057351E+02  9.861846762E-01 
        85 -1.397929867E-02  1.751251779E-01 -3.446989688E-03  7.269082690E+04  2.092166305E+02  3.243770280E+02  2.620268517E+02  3.727529225E+02  9.768524710E-01 
        86 -1.139011487E-02  1.755573757E-01 -1.256774906E-03  7.347736316E+04  2.103404334E+02  3.248506794E+02  2.627936397E+02  3.723535280E+02  9.719081428E-01 
        87 -8.734274343E-03  1.759085237E-01  8.667805443E-04  7.842233612E+04  2.042982769E+02  3.278129282E+02  2.676148436E+02  3.576551476E+02  9.639446782E-01 
        88 -6.073383534E-03  1.762548475E-01  2.984781313E-03  8.825344196E+04  1.907544795E+02  3.333073936E+02  2.766605184E+02  3.318723521E+02  9.662061781E-01 
        89 -3.359730182E-03  1.765819110E-01  5.053045394E-03  9.818277655E+04  1.731340671E+02  3.385488534E+02  2.854251380E+02  3.058251367E+02  9.912475133E-01 
        90 -6.741955509E-04  1.768270807E-01  7.130208361E-03  9.680499104E+04  1.680636692E+02  3.377540709E+02  2.840843883E+02  3.091180718E+02  1.013893165E+00 
        91  2.027043660E-03  1.770783858E-01  9.208570588E-03  7.883824670E+04  1.899824397E+02  3.281972674E+02  2.682408240E+02  3.559750133E+02  1.009058320E+00 
        92  4.731686997E-03  1.772422585E-01  1.127155269E-02  7.337843253E+04  2.134809180E+02  3.248597202E+02  2.628085120E+02  3.771485040E+02  9.710091995E-01 
        93  7.454465044E-03  1.773874983E-01  1.334309669E-02  7.373729626E+04  2.117980047E+02  3.248118473E+02  2.627330237E+02  3.763812905E+02  9.751361506E-01 
        94  1.015989937E-02  1.775222933E-01  1.545596277E-02  7.092184218E+04  2.190699191E+02  3.230072453E+02  2.598253592E+02  3.829194185E+02  9.643861228E-01 
        95  1.284858280E-02  1.775661421E-01  1.756817794E-02  6.743396790E+04  2.279114169E+02  3.208610559E+02  2.563843745E+02  3.911056566E+02  9.523978126E-01 
        96  1.551966693E-02  1.776138061E-01  1.970369132E-02  6.430607880E+04  2.375683866E+02  3.186286256E+02  2.528308313E+02  4.011812496E+02  9.424023824E-01 
        97  1.817410325E-02  1.776258069E-01  2.186017323E-02  6.170884106E+04  2.457720115E+02  3.168574791E+02  2.500250974E+02  4.088674693E+02  9.322661608E-01 
        98  2.080993586E-02  1.775631240E-01  2.403936301E-02  5.984218555E+04  2.536258874E+02  3.155138798E+02  2.479088526E+02  4.145976934E+02  9.194464665E-01 
        99  2.341570779E-02  1.774969016E-01  2.625394818E-02  5.928121741E+04  2.587709866E+02  3.152054119E+02  2.474248052E+02  4.160717335E+02  9.057582244E-01 
       100  2.600295182E-02  1.773818036E-01  2.848806157E-02  6.107899316E+04  2.605484428E+02  3.165259066E+02  2.495191174E+02  4.116289110E+02  8.899568543E-01 
       101  2.856627515E-02  1.771883875E-01  3.074502562E-02  6.659075928E+04  2.567199297E+02  3.202646875E+02  2.555002613E+02  3.967547474E+02  8.711548038E-01 
       102  3.110662233E-02  1.769811535E-01  3.302644514E-02  7.498687256E+04  2.472691584E+02  3.259776106E+02  2.646933842E+02  3.714034176E+02  8.498843536E-01 
       103  3.362247542E-02  1.767159818E-01  3.532849163E-02  8.182278296E+04  2.426939182E+02  3.301950254E+02  2.715310626E+02  3.516075611E+02  8.262145948E-01 
       104  3.610895472E-02  1.763647845E-01  3.765120331E-02  8.323278528E+04  2.475061500E+02  3.306875472E+02  2.723276782E+02  3.491835880E+02  8.055541683E-01 
       105  3.856497337E-02  1.759966372E-01  4.000321012E-02  8.069487805E+04  2.558913969E+02  3.292421060E+02  2.699494823E+02  3.566702825E+02  7.905436354E-01 
       106  4.103059304E-02  1.755360248E-01  4.234569910E-02  7.838045445E+04  2.629909731E+02  3.281863252E+02  2.682175167E+02  3.619244291E+02  7.761131757E-01 
       107  4.340106546E-02  1.750377176E-01  4.474435622E-02  7.868261981E+04  2.661894126E+02  3.286629731E+02  2.689993445E+02  3.594774507E+02  7.609027603E-01 
       108  4.575540032E-02  1.745445103E-01  4.717695363E-02  8.217869861E+04  2.655346179E+02  3.307415767E+02  2.724178188E+02  3.504114809E+02  7.463372834E-01 
       109  4.807037784E-02  1.739953488E-01  4.963532790E-02  8.842698950E+04  2.616334620E+02  3.339283190E+02  2.776968307E+02  3.351342707E+02  7.323605623E-01 
       110  5.034733117E-02  1.734133857E-01  5.212084081E-02  9.490676514E+04  2.580798111E+02  3.370768585E+02  2.829526348E+02  3.193920040E+02  7.179141790E-01 
       111  5.258765486E-02  1.728405975E-01  5.464144749E-02  9.932932568E+04  2.577306919E+02  3.392231827E+02  2.865620823E+02  3.076030083E+02  7.002122700E-01 
       112  5.479076840E-02  1.722430532E-01  5.718902978E-02  1.020448562E+05  2.581835728E+02  3.406106434E+02  2.889095736E+02  2.995600681E+02  6.862722114E-01 
       113  5.694737683E-02  1.716020731E-01  5.976586917E-02  1.048723611E+05  2.569118924E+02  3.420620399E+02  2.913772807E+02  2.915933301E+02  6.793601299E-01 
       114  5.911848447E-02  1.709340834E-01  6.233872565E-02  1.081875431E+05  2.554699108E+02  3.436048120E+02  2.940104104E+02  2.827714902E+02  6.720704332E-01 
       115  6.119351897E-02  1.703313828E-01  6.496775561E-02  1.110442261E+05  2.541872849E+02  3.448305855E+02  2.961121845E+02  2.754090261E+02  6.674098279E-01 
       116  6.319798910E-02  1.696485115E-01  6.765543605E-02  1.133823098E+05  2.527560048E+02  3.458517547E+02  2.978679867E+02  2.698059483E+02  6.657047858E-01 
       117  6.520189851E-02  1.689621155E-01  7.034628384E-02  1.155597393E+05  2.523035440E+02  3.467181349E+02  2.993621082E+02  2.642065659E+02  6.608115006E-01 
       118  6.717992039E-02  1.682884043E-01  7.305807409E-02  1.172185190E+05  2.510841789E+02  3.474587803E+02  3.006422729E+02  2.594723806E+02  6.604826357E-01 
       119  6.910755662E-02  1.675987334E-01  7.579818779E-02  1.185893660E+05  2.499100473E+02  3.478665214E+02  3.013480506E+02  2.563378093E+02  6.621238356E-01 
       120  7.101404689E-02  1.668389198E-01  7.852135391E-02  1.196415159E+05  2.464310383E+02  3.483740010E+02  3.022282670E+02  2.544403770E+02  6.740748035E-01 
