nodenumber     x-coordinate     y-coordinate     z-coordinate         pressure velocity-magnitude      sound-speed      temperature rel-velocity-magnitude relative-velocity-angle 
         1 -2.216901913E-02  1.039879580E-01 -4.300600202E-02  8.755349100E+04  1.539501629E+02  3.330522840E+02  2.762279910E+02  2.357970902E+02  8.594529902E-01 
         2 -2.197401757E-02  1.042260031E-01 -4.002397295E-02  8.747488675E+04  1.544364435E+02  3.330100900E+02  2.761580561E+02  2.363466386E+02  8.589214028E-01 
         3 -2.150271627E-02  1.045375264E-01 -3.708169353E-02  8.737115350E+04  1.550554717E+02  3.329539869E+02  2.760649719E+02  2.370148458E+02  8.581774454E-01 
         4 -2.072290556E-02  1.049359494E-01 -3.421635317E-02  8.725421301E+04  1.557398186E+02  3.328922343E+02  2.759625716E+02  2.377473216E+02  8.573731668E-01 
         5 -1.964621854E-02  1.053757771E-01 -3.145501365E-02  8.712924243E+04  1.564342203E+02  3.328279371E+02  2.758559699E+02  2.385024962E+02  8.566432726E-01 
         6 -1.833909717E-02  1.058829391E-01 -2.880182754E-02  8.697953955E+04  1.571945829E+02  3.327506781E+02  2.757279224E+02  2.394132152E+02  8.561479375E-01 
         7 -1.686396899E-02  1.064019756E-01 -2.624136390E-02  8.679836035E+04  1.580391183E+02  3.326555862E+02  2.755703630E+02  2.404307842E+02  8.556094877E-01 
         8 -1.524276490E-02  1.069101094E-01 -2.376908005E-02  8.658131689E+04  1.590367403E+02  3.325395679E+02  2.753781886E+02  2.415832624E+02  8.547559027E-01 
         9 -1.353040875E-02  1.074492491E-01 -2.136449246E-02  8.634033557E+04  1.602542548E+02  3.324093304E+02  2.751625249E+02  2.428914883E+02  8.532983279E-01 
        10 -1.175719847E-02  1.079385502E-01 -1.899452623E-02  8.613695563E+04  1.615582637E+02  3.322987604E+02  2.749795542E+02  2.440231276E+02  8.507833052E-01 
        11 -9.920451205E-03  1.084473482E-01 -1.667649769E-02  8.606660599E+04  1.627042300E+02  3.322597628E+02  2.749149555E+02  2.447535149E+02  8.477145806E-01 
        12 -8.053093039E-03  1.089314126E-01 -1.437870322E-02  8.624953192E+04  1.631951600E+02  3.323584561E+02  2.750783432E+02  2.444816879E+02  8.446619776E-01 
        13 -6.139911673E-03  1.093816015E-01 -1.211111235E-02  8.676716016E+04  1.625273552E+02  3.326367025E+02  2.755391107E+02  2.429783955E+02  8.436079472E-01 
        14 -4.213714023E-03  1.098625599E-01 -9.853315987E-03  8.759322412E+04  1.603228416E+02  3.330817394E+02  2.762769299E+02  2.403201923E+02  8.470626362E-01 
        15 -2.267252226E-03  1.102821410E-01 -7.616721013E-03  8.853528760E+04  1.562780771E+02  3.335798397E+02  2.771038885E+02  2.371410160E+02  8.590849563E-01 
        16 -3.058463972E-04  1.106716081E-01 -5.380345181E-03  8.931195166E+04  1.499440141E+02  3.339505548E+02  2.777203054E+02  2.346092529E+02  8.861631844E-01 
        17  1.649896870E-03  1.110991589E-01 -3.144821902E-03  8.738267114E+04  1.459959755E+02  3.330220146E+02  2.761793826E+02  2.423709075E+02  9.348575026E-01 
        18  3.605378217E-03  1.114680886E-01 -8.997268064E-04  7.507884998E+04  1.761442125E+02  3.259170432E+02  2.645197330E+02  2.874474664E+02  9.424146134E-01 
        19  5.548952344E-03  1.118349081E-01  1.356589372E-03  7.051838885E+04  2.058623388E+02  3.230639167E+02  2.599097598E+02  3.048033903E+02  8.523114175E-01 
        20  7.472030685E-03  1.121892539E-01  3.633809071E-03  7.285065297E+04  2.105070767E+02  3.244574950E+02  2.621587353E+02  2.961898675E+02  7.911640005E-01 
        21  9.366594022E-03  1.125505666E-01  5.932977735E-03  7.618481293E+04  2.085039220E+02  3.264722607E+02  2.654244816E+02  2.849373331E+02  7.574310279E-01 
        22  1.122147558E-02  1.129077905E-01  8.263617067E-03  7.861328719E+04  2.085382928E+02  3.279662258E+02  2.678581161E+02  2.767057285E+02  7.265173570E-01 
        23  1.303284284E-02  1.132507638E-01  1.062953057E-02  8.032689043E+04  2.107965146E+02  3.290142394E+02  2.695717997E+02  2.711242938E+02  6.948610971E-01 
        24  1.479928419E-02  1.136234762E-01  1.303021626E-02  8.154235265E+04  2.151203394E+02  3.297335540E+02  2.707513236E+02  2.673974093E+02  6.594721859E-01 
        25  1.649617427E-02  1.139938279E-01  1.547769530E-02  8.250009161E+04  2.203177938E+02  3.302836144E+02  2.716552365E+02  2.646689053E+02  6.232714453E-01 
        26  1.811807173E-02  1.143837002E-01  1.797032872E-02  8.316854407E+04  2.261103384E+02  3.306808634E+02  2.723087296E+02  2.632090011E+02  5.887491498E-01 
        27  1.968166241E-02  1.148013513E-01  2.049621310E-02  8.335547168E+04  2.331150749E+02  3.308398731E+02  2.725704377E+02  2.636686909E+02  5.549583123E-01 
        28  2.119101764E-02  1.152299366E-01  2.305322148E-02  8.297772164E+04  2.416755746E+02  3.307043003E+02  2.723472308E+02  2.661057112E+02  5.201224029E-01 
        29  2.266338778E-02  1.156643914E-01  2.563116057E-02  8.242403192E+04  2.503844317E+02  3.304512036E+02  2.719307783E+02  2.689712048E+02  4.861100209E-01 
        30  2.408077791E-02  1.161159634E-01  2.823658064E-02  8.186406982E+04  2.586696935E+02  3.302058697E+02  2.715276392E+02  2.718083942E+02  4.544778629E-01 
        31  2.544088325E-02  1.165921105E-01  3.086849856E-02  8.127731250E+04  2.667900064E+02  3.299426870E+02  2.710955417E+02  2.748088336E+02  4.246144532E-01 
        32  2.674433127E-02  1.170738851E-01  3.352942364E-02  8.069665845E+04  2.747241676E+02  3.296721554E+02  2.706516531E+02  2.777575576E+02  3.957448131E-01 
        33  2.797950643E-02  1.175445507E-01  3.622298897E-02  8.019015405E+04  2.825035735E+02  3.294110062E+02  2.702234219E+02  2.804203947E+02  3.666783377E-01 
        34  2.916313541E-02  1.180056499E-01  3.893937175E-02  7.991065630E+04  2.897332696E+02  3.292038676E+02  2.698839247E+02  2.822929237E+02  3.374721957E-01 
        35  3.031249539E-02  1.184785399E-01  4.167042727E-02  8.000293149E+04  2.955918617E+02  3.291242435E+02  2.697532908E+02  2.827912638E+02  3.102370456E-01 
        36  3.139929926E-02  1.189405785E-01  4.442941843E-02  8.029200806E+04  3.009832469E+02  3.291661062E+02  2.698213983E+02  2.826825324E+02  2.830000549E-01 
        37  3.242013936E-02  1.193808800E-01  4.721660669E-02  8.090772583E+04  3.057890118E+02  3.292974521E+02  2.700360054E+02  2.814061546E+02  2.539917199E-01 
        38  3.340677803E-02  1.198011670E-01  5.002067675E-02  8.213233951E+04  3.085975565E+02  3.299137698E+02  2.710475746E+02  2.780831289E+02  2.273154570E-01 
        39  3.430413654E-02  1.201853153E-01  5.285529857E-02  8.372323413E+04  3.103046799E+02  3.308648806E+02  2.726131458E+02  2.735116329E+02  2.014733022E-01 
        40  3.515433510E-02  1.205874318E-01  5.570324370E-02  8.566239453E+04  3.105930977E+02  3.319620152E+02  2.744246368E+02  2.676892319E+02  1.783451978E-01 
        41  3.592907297E-02  1.209644065E-01  5.857535950E-02  8.784997339E+04  3.095114832E+02  3.331212835E+02  2.763448701E+02  2.609551167E+02  1.591822063E-01 
        42  3.664355424E-02  1.213334730E-01  6.146049591E-02  9.012918542E+04  3.071450896E+02  3.342986870E+02  2.783015676E+02  2.537824655E+02  1.456942044E-01 
        43  3.727845098E-02  1.217084379E-01  6.437276718E-02  9.226595483E+04  3.038984060E+02  3.354643974E+02  2.802454929E+02  2.468648186E+02  1.386877396E-01 
        44  3.781448665E-02  1.220744111E-01  6.730672953E-02  9.402831250E+04  3.004503994E+02  3.364660673E+02  2.819208746E+02  2.410464115E+02  1.378335762E-01 
        45  3.826762164E-02  1.224563704E-01  7.025293559E-02  9.525425336E+04  2.978083985E+02  3.371548679E+02  2.830757539E+02  2.372238157E+02  1.408048182E-01 
        46  3.856443464E-02  1.228195695E-01  7.317567491E-02  9.591413672E+04  2.966835632E+02  3.374680786E+02  2.836016083E+02  2.361665344E+02  1.460625902E-01 
        47  3.882754171E-02  1.231963568E-01  7.616928387E-02  9.617395694E+04  2.952247130E+02  3.379972476E+02  2.844938626E+02  2.341442456E+02  1.499437478E-01 
        48  3.896508106E-02  1.235573809E-01  7.913505459E-02  9.615512109E+04  2.909634171E+02  3.390486298E+02  2.862786522E+02  2.269722290E+02  1.517559066E-01 
        49  3.903512947E-02  1.239238609E-01  8.213137167E-02  9.606677612E+04  2.826685290E+02  3.408183413E+02  2.892945685E+02  2.124743986E+02  1.546487638E-01 
        50  3.900153017E-02  1.243001337E-01  8.510504302E-02  9.603187177E+04  2.691679708E+02  3.436353853E+02  2.941062317E+02  1.886442375E+02  1.576485111E-01 
        51  3.889299026E-02  1.246700891E-01  8.806950082E-02  9.626694910E+04  2.532594140E+02  3.471655591E+02  3.001844025E+02  1.524535716E+02  1.480169619E-01 
        52  3.870303970E-02  1.250405990E-01  9.105247242E-02  9.632636694E+04  2.454029927E+02  3.499572268E+02  3.050106568E+02  1.186420041E+02  6.645003799E-02 
        53  3.847530202E-02  1.253810613E-01  9.402032493E-02  9.722813882E+04  2.447479566E+02  3.519246500E+02  3.084445826E+02  8.685182866E+01 -2.283128198E-01 
        54  3.809583015E-02  1.257752167E-01  9.695318516E-02  9.965136133E+04  2.418550720E+02  3.532702179E+02  3.107949715E+02  6.004657316E+01 -5.595440976E-01 
        55  3.767199372E-02  1.261489404E-01  9.992435767E-02  1.021614131E+05  2.397765870E+02  3.540568571E+02  3.121711063E+02  5.323529840E+01 -4.325698670E-01 
        56  3.723780727E-02  1.265196365E-01  1.028569506E-01  1.043864433E+05  2.373396422E+02  3.538069612E+02  3.117297550E+02  6.377531072E+01 -1.589966975E-01 
        57  3.672955052E-02  1.269046997E-01  1.057947981E-01  1.058614722E+05  2.369589581E+02  3.523065238E+02  3.090971880E+02  9.050614500E+01  2.559477504E-02 
        58  3.615520807E-02  1.273091289E-01  1.087154776E-01  1.067990886E+05  2.417671013E+02  3.497463360E+02  3.046278105E+02  1.257879419E+02  1.276708548E-01 
        59  3.556812424E-02  1.277144368E-01  1.116309472E-01  1.073415131E+05  2.515811369E+02  3.468015215E+02  2.995180047E+02  1.599396446E+02  1.730521579E-01 
        60  3.495651588E-02  1.281329458E-01  1.145394580E-01  1.076465286E+05  2.616292477E+02  3.444791145E+02  2.955131979E+02  1.840614767E+02  1.885045925E-01 
        61  3.433795015E-02  1.285471243E-01  1.174457346E-01  1.077845272E+05  2.679922683E+02  3.432928100E+02  2.934766846E+02  1.962373509E+02  1.915288870E-01 
        62  3.376061330E-02  1.289460490E-01  1.203607660E-01  1.078669918E+05  2.708951435E+02  3.429790580E+02  2.929396429E+02  2.003121467E+02  1.894030403E-01 
        63  3.331803132E-02  1.293309423E-01  1.232882868E-01  1.079194872E+05  2.722289051E+02  3.430025755E+02  2.929797946E+02  2.012540616E+02  1.863862655E-01 
        64  3.310586596E-02  1.296649637E-01  1.262581306E-01  1.078833378E+05  2.731947842E+02  3.430431957E+02  2.930491726E+02  2.015900974E+02  1.835591936E-01 
        65  3.306639982E-02  1.299493947E-01  1.292495641E-01  1.077851369E+05  2.740720456E+02  3.430404360E+02  2.930444909E+02  2.019937754E+02  1.815160845E-01 
        66  3.322486525E-02  1.302097713E-01  1.322380794E-01  1.076425360E+05  2.749874074E+02  3.429948451E+02  2.929665655E+02  2.027339614E+02  1.806265702E-01 
        67  3.356462385E-02  1.304573038E-01  1.352130229E-01  1.074743286E+05  2.759600501E+02  3.429279517E+02  2.928523457E+02  2.038290005E+02  1.809976948E-01 
        68  3.400410102E-02  1.306751199E-01  1.381765647E-01  1.072604347E+05  2.769801881E+02  3.428364906E+02  2.926961424E+02  2.051633227E+02  1.818375317E-01 
        69  3.451963359E-02  1.308741206E-01  1.411278790E-01  1.070186737E+05  2.780312257E+02  3.427330117E+02  2.925194333E+02  2.066491017E+02  1.830867270E-01 
        70  3.508991352E-02  1.310576265E-01  1.440660380E-01  1.067350721E+05  2.791014738E+02  3.426187706E+02  2.923245091E+02  2.082198741E+02  1.845496646E-01 
        71  3.570211579E-02  1.312503676E-01  1.470000000E-01  1.063225566E+05  2.805233383E+02  3.424029236E+02  2.919576187E+02  2.104217358E+02  1.859007534E-01 
        72 -2.843361623E-02  1.708417341E-01 -4.258217492E-02  8.204055518E+04  1.838428679E+02  3.299750767E+02  2.711471701E+02  3.443564844E+02  1.007487100E+00 
        73 -2.838826984E-02  1.709653765E-01 -3.916427879E-02  8.201215088E+04  1.842540760E+02  3.299637988E+02  2.711287019E+02  3.445742717E+02  1.006476254E+00 
        74 -2.835908450E-02  1.711140563E-01 -3.574649433E-02  8.232877545E+04  1.839689875E+02  3.301481054E+02  2.714316995E+02  3.438685548E+02  1.006178720E+00 
        75 -2.838361088E-02  1.712589164E-01 -3.232950605E-02  8.303937451E+04  1.828360252E+02  3.305547810E+02  2.721009102E+02  3.421012125E+02  1.006906752E+00 
        76 -2.841360827E-02  1.714319125E-01 -2.891476756E-02  8.387746716E+04  1.812867951E+02  3.310282373E+02  2.728808289E+02  3.400215263E+02  1.008568546E+00 
        77 -2.833774301E-02  1.716334782E-01 -2.549995819E-02  8.445995129E+04  1.800480509E+02  3.313578244E+02  2.734244567E+02  3.386713285E+02  1.010504266E+00 
        78 -2.791452343E-02  1.719215161E-01 -2.212016887E-02  8.463884766E+04  1.793554382E+02  3.314542198E+02  2.735835638E+02  3.384945755E+02  1.012623064E+00 
        79 -2.700703325E-02  1.722886754E-01 -1.884820631E-02  8.430441455E+04  1.794622245E+02  3.312605019E+02  2.732639713E+02  3.397285299E+02  1.014431469E+00 
        80 -2.544395246E-02  1.727209334E-01 -1.584518523E-02  8.312959540E+04  1.812302705E+02  3.305958955E+02  2.721687503E+02  3.432498960E+02  1.014580504E+00 
        81 -2.351536464E-02  1.732363399E-01 -1.306823492E-02  8.104164343E+04  1.853885226E+02  3.293997367E+02  2.702031512E+02  3.493443859E+02  1.011422251E+00 
        82 -2.134527601E-02  1.737374909E-01 -1.047435973E-02  7.817346947E+04  1.922010872E+02  3.277231783E+02  2.674599935E+02  3.576086605E+02  1.003829142E+00 
        83 -1.897326710E-02  1.742189522E-01 -8.035177519E-03  7.518405856E+04  2.003479081E+02  3.259139502E+02  2.645149229E+02  3.662329512E+02  9.931508792E-01 
        84 -1.652827274E-02  1.746780172E-01 -5.688541800E-03  7.306543207E+04  2.068686621E+02  3.245661397E+02  2.623312232E+02  3.724028907E+02  9.835772458E-01 
        85 -1.397929867E-02  1.751251779E-01 -3.446989688E-03  7.247665015E+04  2.097257361E+02  3.241854205E+02  2.617159162E+02  3.742691250E+02  9.776968118E-01 
        86 -1.139011487E-02  1.755573757E-01 -1.256774906E-03  7.419811121E+04  2.082734244E+02  3.252990680E+02  2.635190659E+02  3.697937260E+02  9.733405430E-01 
        87 -8.734274343E-03  1.759085237E-01  8.667805443E-04  7.960531873E+04  2.019444255E+02  3.285794649E+02  2.688660078E+02  3.550712035E+02  9.663098827E-01 
        88 -6.073383534E-03  1.762548475E-01  2.984781313E-03  8.936346106E+04  1.904537222E+02  3.339149268E+02  2.776674790E+02  3.289364021E+02  9.617622392E-01 
        89 -3.359730182E-03  1.765819110E-01  5.053045394E-03  9.839814874E+04  1.757357472E+02  3.384322770E+02  2.852265809E+02  3.045601492E+02  9.803261608E-01 
        90 -6.741955509E-04  1.768270807E-01  7.130208361E-03  9.880242773E+04  1.632414374E+02  3.389357799E+02  2.860758903E+02  3.036088834E+02  1.023060082E+00 
        91  2.027043660E-03  1.770783858E-01  9.208570588E-03  7.816913612E+04  1.944815138E+02  3.277282083E+02  2.674727955E+02  3.596547903E+02  1.000246285E+00 
        92  4.731686997E-03  1.772422585E-01  1.127155269E-02  7.223957884E+04  2.140910308E+02  3.242095347E+02  2.617557002E+02  3.775322726E+02  9.692239109E-01 
        93  7.454465044E-03  1.773874983E-01  1.334309669E-02  7.311033366E+04  2.091951578E+02  3.244367685E+02  2.621231061E+02  3.741277029E+02  9.785863303E-01 
        94  1.015989937E-02  1.775222933E-01  1.545596277E-02  7.028082932E+04  2.172295958E+02  3.228226130E+02  2.595255686E+02  3.823994479E+02  9.688501272E-01 
        95  1.284858280E-02  1.775661421E-01  1.756817794E-02  6.680154990E+04  2.283429828E+02  3.205446523E+02  2.558774596E+02  3.928672049E+02  9.541228521E-01 
        96  1.551966693E-02  1.776138061E-01  1.970369132E-02  6.389115070E+04  2.375487261E+02  3.184938924E+02  2.526130810E+02  4.015459538E+02  9.426075993E-01 
        97  1.817410325E-02  1.776258069E-01  2.186017323E-02  6.152630139E+04  2.458624806E+02  3.167366271E+02  2.498332181E+02  4.087801156E+02  9.313812014E-01 
        98  2.080993586E-02  1.775631240E-01  2.403936301E-02  5.989730334E+04  2.531348767E+02  3.155030847E+02  2.478881450E+02  4.137983494E+02  9.187438153E-01 
        99  2.341570779E-02  1.774969016E-01  2.625394818E-02  5.965301074E+04  2.574706826E+02  3.154224176E+02  2.477612867E+02  4.146623421E+02  9.062075969E-01 
       100  2.600295182E-02  1.773818036E-01  2.848806157E-02  6.216878418E+04  2.571599092E+02  3.172892370E+02  2.507258663E+02  4.078547068E+02  8.919715881E-01 
       101  2.856627515E-02  1.771883875E-01  3.074502562E-02  6.858024536E+04  2.506957207E+02  3.216055737E+02  2.576317749E+02  3.897659807E+02  8.747039437E-01 
       102  3.110662233E-02  1.769811535E-01  3.302644514E-02  7.627362378E+04  2.438070135E+02  3.264977312E+02  2.655109777E+02  3.676388063E+02  8.521809876E-01 
       103  3.362247542E-02  1.767159818E-01  3.532849163E-02  8.069232117E+04  2.439963684E+02  3.292883987E+02  2.700301394E+02  3.550427980E+02  8.266205676E-01 
       104  3.610895472E-02  1.763647845E-01  3.765120331E-02  8.063007727E+04  2.506948514E+02  3.293897843E+02  2.701887035E+02  3.561219292E+02  8.061115136E-01 
       105  3.856497337E-02  1.759966372E-01  4.000321012E-02  7.870227386E+04  2.587646019E+02  3.282914751E+02  2.683893259E+02  3.626668711E+02  7.913600290E-01 
       106  4.103059304E-02  1.755360248E-01  4.234569910E-02  7.761563420E+04  2.646346071E+02  3.277532285E+02  2.675083435E+02  3.658684744E+02  7.777345722E-01 
       107  4.340106546E-02  1.750377176E-01  4.474435622E-02  7.948809335E+04  2.662391104E+02  3.288396956E+02  2.692893215E+02  3.610263283E+02  7.631566278E-01 
       108  4.575540032E-02  1.745445103E-01  4.717695363E-02  8.486516541E+04  2.626702023E+02  3.317240181E+02  2.740413742E+02  3.464973993E+02  7.486111382E-01 
       109  4.807037784E-02  1.739953488E-01  4.963532790E-02  9.088037817E+04  2.586916418E+02  3.349643421E+02  2.794172134E+02  3.293648157E+02  7.321052011E-01 
       110  5.034733117E-02  1.734133857E-01  5.212084081E-02  9.502310107E+04  2.580781422E+02  3.372050476E+02  2.831623650E+02  3.180302067E+02  7.151890993E-01 
       111  5.258765486E-02  1.728405975E-01  5.464144749E-02  9.810735693E+04  2.587036514E+02  3.387879906E+02  2.858263683E+02  3.103547001E+02  7.007549331E-01 
       112  5.479076840E-02  1.722430532E-01  5.718902978E-02  1.012706821E+05  2.585795345E+02  3.403153753E+02  2.884091797E+02  3.021917524E+02  6.886248197E-01 
       113  5.694737683E-02  1.716020731E-01  5.976586917E-02  1.044496889E+05  2.580108111E+02  3.418103068E+02  2.909478841E+02  2.935990496E+02  6.778503666E-01 
       114  5.911848447E-02  1.709340834E-01  6.233872565E-02  1.074103622E+05  2.572842695E+02  3.431791425E+02  2.932822946E+02  2.855572980E+02  6.689882200E-01 
       115  6.119351897E-02  1.703313828E-01  6.496775561E-02  1.100629644E+05  2.565176959E+02  3.443701534E+02  2.953214984E+02  2.784909177E+02  6.624182574E-01 
       116  6.319798910E-02  1.696485115E-01  6.765543605E-02  1.124895881E+05  2.557212043E+02  3.454379220E+02  2.971553116E+02  2.718881130E+02  6.567526897E-01 
       117  6.520189851E-02  1.689621155E-01  7.034628384E-02  1.147844697E+05  2.547962236E+02  3.464322653E+02  2.988684292E+02  2.657309856E+02  6.527531408E-01 
       118  6.717992039E-02  1.682884043E-01  7.305807409E-02  1.173116606E+05  2.531186380E+02  3.475279560E+02  3.007617960E+02  2.592420330E+02  6.518663485E-01 
       119  6.910755662E-02  1.675987334E-01  7.579818779E-02  1.196306400E+05  2.498502829E+02  3.484704089E+02  3.023953209E+02  2.536368155E+02  6.592592248E-01 
       120  7.101404689E-02  1.668389198E-01  7.852135391E-02  1.210925797E+05  2.450284275E+02  3.491053159E+02  3.034985168E+02  2.508506356E+02  6.761990427E-01 
