nodenumber     x-coordinate     y-coordinate     z-coordinate         pressure velocity-magnitude      sound-speed      temperature rel-velocity-magnitude relative-velocity-angle 
         1 -2.216901913E-02  1.039879580E-01 -4.300600202E-02  8.757117311E+04  1.535253354E+02  3.330894725E+02  2.762897492E+02  2.353109669E+02  8.601229570E-01 
         2 -2.197401757E-02  1.042260031E-01 -4.002397295E-02  8.748732681E+04  1.544939376E+02  3.330083147E+02  2.761551169E+02  2.364897805E+02  8.591760497E-01 
         3 -2.150271627E-02  1.045375264E-01 -3.708169353E-02  8.737266858E+04  1.550660253E+02  3.329522834E+02  2.760622215E+02  2.370446937E+02  8.583081863E-01 
         4 -2.072290556E-02  1.049359494E-01 -3.421635317E-02  8.723291687E+04  1.557266819E+02  3.328867884E+02  2.759536395E+02  2.375003576E+02  8.566640904E-01 
         5 -1.964621854E-02  1.053757771E-01 -3.145501365E-02  8.711033765E+04  1.563410234E+02  3.328304119E+02  2.758602033E+02  2.384138899E+02  8.569977377E-01 
         6 -1.833909717E-02  1.058829391E-01 -2.880182754E-02  8.697095142E+04  1.573099389E+02  3.327344398E+02  2.757011228E+02  2.395944557E+02  8.562825415E-01 
         7 -1.686396899E-02  1.064019756E-01 -2.624136390E-02  8.679688062E+04  1.580774541E+02  3.326473646E+02  2.755568457E+02  2.403913217E+02  8.553023897E-01 
         8 -1.524276490E-02  1.069101094E-01 -2.376908005E-02  8.656803711E+04  1.590907962E+02  3.325240688E+02  2.753526368E+02  2.416369257E+02  8.547040969E-01 
         9 -1.353040875E-02  1.074492491E-01 -2.136449246E-02  8.629265173E+04  1.601137037E+02  3.323995519E+02  2.751463773E+02  2.425739460E+02  8.529975582E-01 
        10 -1.175719847E-02  1.079385502E-01 -1.899452623E-02  8.612792072E+04  1.613406233E+02  3.323041873E+02  2.749885018E+02  2.437792933E+02  8.511270331E-01 
        11 -9.920451205E-03  1.084473482E-01 -1.667649769E-02  8.607147440E+04  1.628633726E+02  3.322402841E+02  2.748828553E+02  2.450742658E+02  8.480831778E-01 
        12 -8.053093039E-03  1.089314126E-01 -1.437870322E-02  8.621512250E+04  1.635219977E+02  3.323051051E+02  2.749900826E+02  2.447874531E+02  8.439585571E-01 
        13 -6.139911673E-03  1.093816015E-01 -1.211111235E-02  8.670820972E+04  1.625943689E+02  3.326075830E+02  2.754908514E+02  2.432480974E+02  8.442055918E-01 
        14 -4.213714023E-03  1.098625599E-01 -9.853315987E-03  8.758803027E+04  1.602193613E+02  3.330849571E+02  2.762823067E+02  2.403246107E+02  8.477693424E-01 
        15 -2.267252226E-03  1.102821410E-01 -7.616721013E-03  8.863704004E+04  1.560510712E+02  3.336406345E+02  2.772051010E+02  2.368382206E+02  8.594669923E-01 
        16 -3.058463972E-04  1.106716081E-01 -5.380345181E-03  8.941255396E+04  1.496084228E+02  3.340295057E+02  2.778518295E+02  2.344592185E+02  8.878131062E-01 
        17  1.649896870E-03  1.110991589E-01 -3.144821902E-03  8.725818201E+04  1.486172684E+02  3.326617475E+02  2.755820484E+02  2.427190337E+02  9.243200682E-01 
        18  3.605378217E-03  1.114680886E-01 -8.997268064E-04  7.558549109E+04  1.775120983E+02  3.261042604E+02  2.648260031E+02  2.894717770E+02  9.444862772E-01 
        19  5.548952344E-03  1.118349081E-01  1.356589372E-03  6.987404932E+04  2.074654341E+02  3.228998179E+02  2.596475797E+02  3.047002416E+02  8.429356641E-01 
        20  7.472030685E-03  1.121892539E-01  3.633809071E-03  7.293110782E+04  2.109045001E+02  3.247903259E+02  2.626971591E+02  2.963089970E+02  7.901352716E-01 
        21  9.366594022E-03  1.125505666E-01  5.932977735E-03  7.667447656E+04  2.082080759E+02  3.270801768E+02  2.664147551E+02  2.844300511E+02  7.572663589E-01 
        22  1.122147558E-02  1.129077905E-01  8.263617067E-03  7.907023888E+04  2.074703366E+02  3.285775723E+02  2.688574679E+02  2.754253523E+02  7.276268760E-01 
        23  1.303284284E-02  1.132507638E-01  1.062953057E-02  8.059094163E+04  2.101917918E+02  3.294236554E+02  2.702427320E+02  2.697319376E+02  6.935463271E-01 
        24  1.479928419E-02  1.136234762E-01  1.303021626E-02  8.178684993E+04  2.147306695E+02  3.300632206E+02  2.712936089E+02  2.667051104E+02  6.595179359E-01 
        25  1.649617427E-02  1.139938279E-01  1.547769530E-02  8.282844135E+04  2.193206549E+02  3.306226115E+02  2.722137918E+02  2.638142924E+02  6.257105707E-01 
        26  1.811807173E-02  1.143837002E-01  1.797032872E-02  8.348737573E+04  2.248948150E+02  3.308889480E+02  2.726522021E+02  2.621226716E+02  5.916818958E-01 
        27  1.968166241E-02  1.148013513E-01  2.049621310E-02  8.349565186E+04  2.324839461E+02  3.307655952E+02  2.724492233E+02  2.630741036E+02  5.567858121E-01 
        28  2.119101764E-02  1.152299366E-01  2.305322148E-02  8.296806871E+04  2.410407610E+02  3.304945514E+02  2.720027460E+02  2.656468302E+02  5.218927155E-01 
        29  2.266338778E-02  1.156643914E-01  2.563116057E-02  8.239792322E+04  2.498768365E+02  3.301517150E+02  2.714391370E+02  2.681083523E+02  4.859032235E-01 
        30  2.408077791E-02  1.161159634E-01  2.823658064E-02  8.190756305E+04  2.584870577E+02  3.297922733E+02  2.708482301E+02  2.711745689E+02  4.533921997E-01 
        31  2.544088325E-02  1.165921105E-01  3.086849856E-02  8.135072656E+04  2.667936940E+02  3.294165564E+02  2.702316959E+02  2.747921062E+02  4.245808111E-01 
        32  2.674433127E-02  1.170738851E-01  3.352942364E-02  8.072929126E+04  2.745774338E+02  3.291207943E+02  2.697466342E+02  2.780741086E+02  3.975133300E-01 
        33  2.797950643E-02  1.175445507E-01  3.622298897E-02  8.015978601E+04  2.821928244E+02  3.289098309E+02  2.694005392E+02  2.806450117E+02  3.688947425E-01 
        34  2.916313541E-02  1.180056499E-01  3.893937175E-02  7.986424728E+04  2.899123787E+02  3.287536575E+02  2.691444721E+02  2.825449998E+02  3.372280748E-01 
        35  3.031249539E-02  1.184785399E-01  4.167042727E-02  7.997342120E+04  2.966654701E+02  3.287585726E+02  2.691526000E+02  2.834854292E+02  3.069845961E-01 
        36  3.139929926E-02  1.189405785E-01  4.442941843E-02  8.023727802E+04  3.021146508E+02  3.289862262E+02  2.695254017E+02  2.833835421E+02  2.795030557E-01 
        37  3.242013936E-02  1.193808800E-01  4.721660669E-02  8.079990876E+04  3.072214673E+02  3.293281836E+02  2.700857744E+02  2.827066475E+02  2.512927128E-01 
        38  3.340677803E-02  1.198011670E-01  5.002067675E-02  8.210970709E+04  3.098994838E+02  3.300599700E+02  2.712880073E+02  2.792889568E+02  2.250290330E-01 
        39  3.430413654E-02  1.201853153E-01  5.285529857E-02  8.384376270E+04  3.107992516E+02  3.310714188E+02  2.729538345E+02  2.740225525E+02  2.007825254E-01 
        40  3.515433510E-02  1.205874318E-01  5.570324370E-02  8.595356250E+04  3.104698448E+02  3.322441559E+02  2.748914642E+02  2.675579147E+02  1.785204820E-01 
        41  3.592907297E-02  1.209644065E-01  5.857535950E-02  8.829750122E+04  3.088489046E+02  3.334877615E+02  2.769533405E+02  2.602110677E+02  1.599792405E-01 
        42  3.664355424E-02  1.213334730E-01  6.146049591E-02  9.071554431E+04  3.058540592E+02  3.346840639E+02  2.789437361E+02  2.523878174E+02  1.475345744E-01 
        43  3.727845098E-02  1.217084379E-01  6.437276718E-02  9.296791064E+04  3.020375023E+02  3.357538757E+02  2.807292652E+02  2.450664740E+02  1.423396925E-01 
        44  3.781448665E-02  1.220744111E-01  6.730672953E-02  9.477950854E+04  2.983369703E+02  3.366556215E+02  2.822385120E+02  2.393413134E+02  1.435689651E-01 
        45  3.826762164E-02  1.224563704E-01  7.025293559E-02  9.598726740E+04  2.955846329E+02  3.373081028E+02  2.833331196E+02  2.357057368E+02  1.481669665E-01 
        46  3.856443464E-02  1.228195695E-01  7.317567491E-02  9.663888281E+04  2.936999893E+02  3.377750092E+02  2.841184387E+02  2.336484756E+02  1.540528089E-01 
        47  3.882754171E-02  1.231963568E-01  7.616928387E-02  9.688221017E+04  2.918625947E+02  3.384593579E+02  2.852723414E+02  2.314833452E+02  1.597514459E-01 
        48  3.896508106E-02  1.235573809E-01  7.913505459E-02  9.682815820E+04  2.879607773E+02  3.395552673E+02  2.871365509E+02  2.249391212E+02  1.636055969E-01 
        49  3.903512947E-02  1.239238609E-01  8.213137167E-02  9.665115637E+04  2.775495007E+02  3.417251401E+02  2.908455739E+02  2.070018234E+02  1.752428787E-01 
        50  3.900153017E-02  1.243001337E-01  8.510504302E-02  9.628549500E+04  2.607477041E+02  3.450670571E+02  2.965720042E+02  1.752067266E+02  1.827462489E-01 
        51  3.889299026E-02  1.246700891E-01  8.806950082E-02  9.596792841E+04  2.434278088E+02  3.486827867E+02  3.028119867E+02  1.294349597E+02  1.648530690E-01 
        52  3.870303970E-02  1.250405990E-01  9.105247242E-02  9.587850659E+04  2.368565955E+02  3.510653205E+02  3.069363098E+02  8.830933511E+01  2.617598651E-02 
        53  3.847530202E-02  1.253810613E-01  9.402032493E-02  9.635252731E+04  2.380751588E+02  3.521897953E+02  3.089002374E+02  5.404367134E+01 -5.045022052E-01 
        54  3.809583015E-02  1.257752167E-01  9.695318516E-02  9.755227637E+04  2.382794228E+02  3.530272560E+02  3.103621407E+02  4.064748001E+01 -1.628342882E+00 
        55  3.767199372E-02  1.261489404E-01  9.992435767E-02  9.846062280E+04  2.466080356E+02  3.525015373E+02  3.094358068E+02  4.702915621E+01 -1.927542277E+00 
        56  3.723780727E-02  1.265196365E-01  1.028569506E-01  9.974135648E+04  2.482711579E+02  3.510336989E+02  3.068637096E+02  6.790703470E+01 -1.063538202E+00 
        57  3.672955052E-02  1.269046997E-01  1.057947981E-01  1.018534548E+05  2.349701529E+02  3.496083651E+02  3.043764772E+02  1.066102324E+02  6.383831799E-02 
        58  3.615520807E-02  1.273091289E-01  1.087154776E-01  1.049017935E+05  2.313144941E+02  3.474811163E+02  3.006875849E+02  1.477254863E+02  2.948626895E-01 
        59  3.556812424E-02  1.277144368E-01  1.116309472E-01  1.073077054E+05  2.416092324E+02  3.453830814E+02  2.970660396E+02  1.750426722E+02  2.890921913E-01 
        60  3.495651588E-02  1.281329458E-01  1.145394580E-01  1.081073662E+05  2.558029575E+02  3.440974069E+02  2.948571720E+02  1.873766994E+02  2.359692804E-01 
        61  3.433795015E-02  1.285471243E-01  1.174457346E-01  1.079949662E+05  2.658558452E+02  3.433353457E+02  2.935504069E+02  1.941962862E+02  1.978785936E-01 
        62  3.376061330E-02  1.289460490E-01  1.203607660E-01  1.079661870E+05  2.688825846E+02  3.430883904E+02  2.931272757E+02  1.962921624E+02  1.880475910E-01 
        63  3.331803132E-02  1.293309423E-01  1.232882868E-01  1.081507167E+05  2.679822069E+02  3.431546962E+02  2.932402294E+02  1.950364819E+02  1.909316777E-01 
        64  3.310586596E-02  1.296649637E-01  1.262581306E-01  1.082301038E+05  2.686706762E+02  3.430580404E+02  2.930748146E+02  1.967960565E+02  1.945217698E-01 
        65  3.306639982E-02  1.299493947E-01  1.292495641E-01  1.081358224E+05  2.706846412E+02  3.429111876E+02  2.928240265E+02  1.997296832E+02  1.942645309E-01 
        66  3.322486525E-02  1.302097713E-01  1.322380794E-01  1.078782571E+05  2.725843635E+02  3.428290718E+02  2.926837510E+02  2.012390804E+02  1.900529881E-01 
        67  3.356462385E-02  1.304573038E-01  1.352130229E-01  1.075678943E+05  2.740701590E+02  3.427916916E+02  2.926199154E+02  2.027557148E+02  1.888353815E-01 
        68  3.400410102E-02  1.306751199E-01  1.381765647E-01  1.072876073E+05  2.756650767E+02  3.427152696E+02  2.924894197E+02  2.047143896E+02  1.883740942E-01 
        69  3.451963359E-02  1.308741206E-01  1.411278790E-01  1.069952152E+05  2.771843257E+02  3.425938973E+02  2.922822359E+02  2.067746570E+02  1.887757042E-01 
        70  3.508991352E-02  1.310576265E-01  1.440660380E-01  1.066563445E+05  2.785752282E+02  3.424544377E+02  2.920442915E+02  2.088595762E+02  1.900721109E-01 
        71  3.570211579E-02  1.312503676E-01  1.470000000E-01  1.062974326E+05  2.799716377E+02  3.423039246E+02  2.917858925E+02  2.110674477E+02  1.915548649E-01 
        72 -2.843361623E-02  1.708417341E-01 -4.258217492E-02  8.203864258E+04  1.839232326E+02  3.299512081E+02  2.711081982E+02  3.441437473E+02  1.006982781E+00 
        73 -2.838826984E-02  1.709653765E-01 -3.916427879E-02  8.215508240E+04  1.838938780E+02  3.300279851E+02  2.712345345E+02  3.443399463E+02  1.007511227E+00 
        74 -2.835908450E-02  1.711140563E-01 -3.574649433E-02  8.238751428E+04  1.837282020E+02  3.301579115E+02  2.714481573E+02  3.437303436E+02  1.007172673E+00 
        75 -2.838361088E-02  1.712589164E-01 -3.232950605E-02  8.287575342E+04  1.834061561E+02  3.304122438E+02  2.718665762E+02  3.431153755E+02  1.007144917E+00 
        76 -2.841360827E-02  1.714319125E-01 -2.891476756E-02  8.337370349E+04  1.820802822E+02  3.307508378E+02  2.724238286E+02  3.415547628E+02  1.008781120E+00 
        77 -2.833774301E-02  1.716334782E-01 -2.549995819E-02  8.384435107E+04  1.810690535E+02  3.310526459E+02  2.729212706E+02  3.398309445E+02  1.009305589E+00 
        78 -2.791452343E-02  1.719215161E-01 -2.212016887E-02  8.423524170E+04  1.807228251E+02  3.311704483E+02  2.731157207E+02  3.399393787E+02  1.010713115E+00 
        79 -2.700703325E-02  1.722886754E-01 -1.884820631E-02  8.434703784E+04  1.801032434E+02  3.312311087E+02  2.732158737E+02  3.402951889E+02  1.013436254E+00 
        80 -2.544395246E-02  1.727209334E-01 -1.584518523E-02  8.334339752E+04  1.814111121E+02  3.306420188E+02  2.722447240E+02  3.430336537E+02  1.013723912E+00 
        81 -2.351536464E-02  1.732363399E-01 -1.306823492E-02  8.135336534E+04  1.854374582E+02  3.295344841E+02  2.704242560E+02  3.491008031E+02  1.010964707E+00 
        82 -2.134527601E-02  1.737374909E-01 -1.047435973E-02  7.864242297E+04  1.910269362E+02  3.279259101E+02  2.677919620E+02  3.550798982E+02  1.003302206E+00 
        83 -1.897326710E-02  1.742189522E-01 -8.035177519E-03  7.570112201E+04  1.985872698E+02  3.262360475E+02  2.650394164E+02  3.641419411E+02  9.954440398E-01 
        84 -1.652827274E-02  1.746780172E-01 -5.688541800E-03  7.361241931E+04  2.052121248E+02  3.248930039E+02  2.628606677E+02  3.706930652E+02  9.865226764E-01 
        85 -1.397929867E-02  1.751251779E-01 -3.446989688E-03  7.276357324E+04  2.089046597E+02  3.244761000E+02  2.621867967E+02  3.724473939E+02  9.771087952E-01 
        86 -1.139011487E-02  1.755573757E-01 -1.256774906E-03  7.349557837E+04  2.105235219E+02  3.248231912E+02  2.627490182E+02  3.720747476E+02  9.707369059E-01 
        87 -8.734274343E-03  1.759085237E-01  8.667805443E-04  7.841135468E+04  2.041791786E+02  3.278561587E+02  2.676850817E+02  3.580371845E+02  9.651742065E-01 
        88 -6.073383534E-03  1.762548475E-01  2.984781313E-03  8.825449615E+04  1.906016272E+02  3.333163462E+02  2.766770685E+02  3.318929763E+02  9.666509167E-01 
        89 -3.359730182E-03  1.765819110E-01  5.053045394E-03  9.829435205E+04  1.748141990E+02  3.384226210E+02  2.852130597E+02  3.055166078E+02  9.850012651E-01 
        90 -6.741955509E-04  1.768270807E-01  7.130208361E-03  9.680285445E+04  1.685763642E+02  3.375155385E+02  2.836848611E+02  3.068427896E+02  1.008886917E+00 
        91  2.027043660E-03  1.770783858E-01  9.208570588E-03  7.916820914E+04  1.905639183E+02  3.282908991E+02  2.683914262E+02  3.556482471E+02  1.006635545E+00 
        92  4.731686997E-03  1.772422585E-01  1.127155269E-02  7.337880461E+04  2.124501337E+02  3.249145268E+02  2.628973739E+02  3.748830594E+02  9.697080776E-01 
        93  7.454465044E-03  1.773874983E-01  1.334309669E-02  7.379788216E+04  2.111858230E+02  3.249508080E+02  2.629567611E+02  3.764087880E+02  9.771549252E-01 
        94  1.015989937E-02  1.775222933E-01  1.545596277E-02  7.099887048E+04  2.191843802E+02  3.230615218E+02  2.599137207E+02  3.835063139E+02  9.653694985E-01 
        95  1.284858280E-02  1.775661421E-01  1.756817794E-02  6.747574725E+04  2.278088621E+02  3.208989552E+02  2.564452610E+02  3.911528726E+02  9.529426419E-01 
        96  1.551966693E-02  1.776138061E-01  1.970369132E-02  6.434832806E+04  2.372089641E+02  3.186909862E+02  2.529310858E+02  4.006974421E+02  9.425929962E-01 
        97  1.817410325E-02  1.776258069E-01  2.186017323E-02  6.172421680E+04  2.458254340E+02  3.168418207E+02  2.500015001E+02  4.088762527E+02  9.321454717E-01 
        98  2.080993586E-02  1.775631240E-01  2.403936301E-02  5.983647620E+04  2.537742343E+02  3.154769135E+02  2.478516874E+02  4.148101339E+02  9.195389189E-01 
        99  2.341570779E-02  1.774969016E-01  2.625394818E-02  5.924299854E+04  2.589997220E+02  3.151442661E+02  2.473295650E+02  4.161722097E+02  9.054444320E-01 
       100  2.600295182E-02  1.773818036E-01  2.848806157E-02  6.103626465E+04  2.604200191E+02  3.165098324E+02  2.494943123E+02  4.113735294E+02  8.898675740E-01 
       101  2.856627515E-02  1.771883875E-01  3.074502562E-02  6.659378711E+04  2.564704170E+02  3.202837200E+02  2.555316153E+02  3.964997082E+02  8.714810871E-01 
       102  3.110662233E-02  1.769811535E-01  3.302644514E-02  7.502884473E+04  2.474409103E+02  3.259696646E+02  2.646827173E+02  3.716328545E+02  8.498953730E-01 
       103  3.362247542E-02  1.767159818E-01  3.532849163E-02  8.187087915E+04  2.429153633E+02  3.302169409E+02  2.715678568E+02  3.518995390E+02  8.261240739E-01 
       104  3.610895472E-02  1.763647845E-01  3.765120331E-02  8.324991528E+04  2.476581326E+02  3.307247291E+02  2.723888240E+02  3.490884061E+02  8.049709154E-01 
       105  3.856497337E-02  1.759966372E-01  4.000321012E-02  8.068060458E+04  2.560140795E+02  3.292296935E+02  2.699292505E+02  3.568320280E+02  7.904216857E-01 
       106  4.103059304E-02  1.755360248E-01  4.234569910E-02  7.831756989E+04  2.632406032E+02  3.280585217E+02  2.680089146E+02  3.625352969E+02  7.764103857E-01 
       107  4.340106546E-02  1.750377176E-01  4.474435622E-02  7.861232298E+04  2.665816898E+02  3.285210963E+02  2.687675683E+02  3.600229183E+02  7.605789690E-01 
       108  4.575540032E-02  1.745445103E-01  4.717695363E-02  8.215490344E+04  2.655017459E+02  3.307392430E+02  2.724147096E+02  3.502038546E+02  7.460960941E-01 
       109  4.807037784E-02  1.739953488E-01  4.963532790E-02  8.845039771E+04  2.613379030E+02  3.340233831E+02  2.778552818E+02  3.344090223E+02  7.321989462E-01 
       110  5.034733117E-02  1.734133857E-01  5.212084081E-02  9.498766260E+04  2.579109802E+02  3.371639996E+02  2.830985565E+02  3.190676289E+02  7.179488949E-01 
       111  5.258765486E-02  1.728405975E-01  5.464144749E-02  9.942733643E+04  2.577885075E+02  3.392545948E+02  2.866151104E+02  3.080029278E+02  7.006111257E-01 
       112  5.479076840E-02  1.722430532E-01  5.718902978E-02  1.021307192E+05  2.583531904E+02  3.406265697E+02  2.889366417E+02  2.999165325E+02  6.861874163E-01 
       113  5.694737683E-02  1.716020731E-01  5.976586917E-02  1.049366536E+05  2.570855207E+02  3.420668137E+02  2.913855023E+02  2.915751188E+02  6.787435357E-01 
       114  5.911848447E-02  1.709340834E-01  6.233872565E-02  1.082576059E+05  2.553390886E+02  3.436366937E+02  2.940649722E+02  2.826019919E+02  6.723463722E-01 
       115  6.119351897E-02  1.703313828E-01  6.496775561E-02  1.111060513E+05  2.542916322E+02  3.448521290E+02  2.961491327E+02  2.752992096E+02  6.668913960E-01 
       116  6.319798910E-02  1.696485115E-01  6.765543605E-02  1.133602396E+05  2.526530733E+02  3.458566608E+02  2.978764849E+02  2.695494108E+02  6.658317912E-01 
       117  6.520189851E-02  1.689621155E-01  7.034628384E-02  1.155078208E+05  2.523233995E+02  3.466773520E+02  2.992916088E+02  2.643415565E+02  6.608710717E-01 
       118  6.717992039E-02  1.682884043E-01  7.305807409E-02  1.172105674E+05  2.507265711E+02  3.474861336E+02  3.006894512E+02  2.595666666E+02  6.619842462E-01 
       119  6.910755662E-02  1.675987334E-01  7.579818779E-02  1.186157877E+05  2.498983305E+02  3.479137182E+02  3.014297881E+02  2.562038255E+02  6.620551324E-01 
       120  7.101404689E-02  1.668389198E-01  7.852135391E-02  1.196678694E+05  2.465585006E+02  3.483899450E+02  3.022559078E+02  2.544400899E+02  6.736043743E-01 
