nodenumber     x-coordinate     y-coordinate     z-coordinate         pressure velocity-magnitude      sound-speed      temperature rel-velocity-magnitude relative-velocity-angle 
         1 -2.216901913E-02  1.039879580E-01 -4.300600202E-02  8.755097264E+04  1.539427531E+02  3.330511769E+02  2.762261733E+02  2.357939446E+02  8.594814620E-01 
         2 -2.197401757E-02  1.042260031E-01 -4.002397295E-02  8.746942163E+04  1.544258405E+02  3.330067562E+02  2.761524853E+02  2.363456529E+02  8.589752987E-01 
         3 -2.150271627E-02  1.045375264E-01 -3.708169353E-02  8.736512762E+04  1.550542331E+02  3.329501448E+02  2.760585885E+02  2.370239040E+02  8.582178466E-01 
         4 -2.072290556E-02  1.049359494E-01 -3.421635317E-02  8.725016138E+04  1.557466393E+02  3.328897805E+02  2.759584937E+02  2.377659872E+02  8.574039070E-01 
         5 -1.964621854E-02  1.053757771E-01 -3.145501365E-02  8.712737134E+04  1.564463634E+02  3.328266277E+02  2.758537979E+02  2.385227823E+02  8.566506132E-01 
         6 -1.833909717E-02  1.058829391E-01 -2.880182754E-02  8.697770581E+04  1.572171998E+02  3.327487431E+02  2.757247190E+02  2.394368110E+02  8.561091851E-01 
         7 -1.686396899E-02  1.064019756E-01 -2.624136390E-02  8.679792236E+04  1.580630894E+02  3.326536455E+02  2.755671453E+02  2.404489856E+02  8.555425052E-01 
         8 -1.524276490E-02  1.069101094E-01 -2.376908005E-02  8.658369714E+04  1.590522230E+02  3.325384479E+02  2.753763180E+02  2.415854120E+02  8.546752539E-01 
         9 -1.353040875E-02  1.074492491E-01 -2.136449246E-02  8.635009521E+04  1.602487559E+02  3.324113622E+02  2.751659169E+02  2.428653104E+02  8.532286715E-01 
        10 -1.175719847E-02  1.079385502E-01 -1.899452623E-02  8.615666266E+04  1.615190787E+02  3.323062148E+02  2.749918034E+02  2.439704773E+02  8.508020984E-01 
        11 -9.920451205E-03  1.084473482E-01 -1.667649769E-02  8.609809961E+04  1.626077448E+02  3.322757514E+02  2.749414047E+02  2.446870087E+02  8.480006685E-01 
        12 -8.053093039E-03  1.089314126E-01 -1.437870322E-02  8.628065982E+04  1.630769050E+02  3.323773538E+02  2.751096041E+02  2.443992999E+02  8.450157568E-01 
        13 -6.139911673E-03  1.093816015E-01 -1.211111235E-02  8.673493335E+04  1.625258975E+02  3.326227913E+02  2.755160294E+02  2.430278616E+02  8.437937126E-01 
        14 -4.213714023E-03  1.098625599E-01 -9.853315987E-03  8.746050830E+04  1.605660820E+02  3.330101032E+02  2.761580791E+02  2.406534109E+02  8.468706347E-01 
        15 -2.267252226E-03  1.102821410E-01 -7.616721013E-03  8.845526221E+04  1.566004505E+02  3.335383224E+02  2.770349874E+02  2.373581629E+02  8.580559492E-01 
        16 -3.058463972E-04  1.106716081E-01 -5.380345181E-03  8.948840454E+04  1.496751895E+02  3.340540304E+02  2.778924379E+02  2.340556393E+02  8.859096803E-01 
        17  1.649896870E-03  1.110991589E-01 -3.144821902E-03  8.721344116E+04  1.465293343E+02  3.328886080E+02  2.759581149E+02  2.434116895E+02  9.355488084E-01 
        18  3.605378217E-03  1.114680886E-01 -8.997268064E-04  7.598627295E+04  1.737268157E+02  3.264531875E+02  2.653908839E+02  2.840256085E+02  9.414864555E-01 
        19  5.548952344E-03  1.118349081E-01  1.356589372E-03  7.020594092E+04  2.073053831E+02  3.229225676E+02  2.596821330E+02  3.061368837E+02  8.500225493E-01 
        20  7.472030685E-03  1.121892539E-01  3.633809071E-03  7.262062357E+04  2.120552129E+02  3.245079293E+02  2.622412677E+02  2.978277762E+02  7.895761142E-01 
        21  9.366594022E-03  1.125505666E-01  5.932977735E-03  7.625772736E+04  2.086196887E+02  3.266912048E+02  2.657808125E+02  2.851506588E+02  7.577291904E-01 
        22  1.122147558E-02  1.129077905E-01  8.263617067E-03  7.872509174E+04  2.084584009E+02  3.280447867E+02  2.679861284E+02  2.767257163E+02  7.270306959E-01 
        23  1.303284284E-02  1.132507638E-01  1.062953057E-02  8.030514467E+04  2.112236038E+02  3.289136364E+02  2.694068488E+02  2.717477736E+02  6.948683419E-01 
        24  1.479928419E-02  1.136234762E-01  1.303021626E-02  8.145236058E+04  2.157316873E+02  3.296045126E+02  2.705397630E+02  2.681763262E+02  6.590596861E-01 
        25  1.649617427E-02  1.139938279E-01  1.547769530E-02  8.248785553E+04  2.206878321E+02  3.302187486E+02  2.715489459E+02  2.650180237E+02  6.225660718E-01 
        26  1.811807173E-02  1.143837002E-01  1.797032872E-02  8.326837256E+04  2.261093302E+02  3.306675019E+02  2.722869458E+02  2.629540672E+02  5.877977507E-01 
        27  1.968166241E-02  1.148013513E-01  2.049621310E-02  8.347645319E+04  2.329207251E+02  3.308058882E+02  2.725145569E+02  2.631103063E+02  5.539106987E-01 
        28  2.119101764E-02  1.152299366E-01  2.305322148E-02  8.302334100E+04  2.413718537E+02  3.306335659E+02  2.722307074E+02  2.654942681E+02  5.194382229E-01 
        29  2.266338778E-02  1.156643914E-01  2.563116057E-02  8.241475800E+04  2.502409769E+02  3.303092988E+02  2.716970724E+02  2.686808573E+02  4.858040817E-01 
        30  2.408077791E-02  1.161159634E-01  2.823658064E-02  8.186189185E+04  2.584430356E+02  3.300450172E+02  2.712625113E+02  2.714730432E+02  4.544504015E-01 
        31  2.544088325E-02  1.165921105E-01  3.086849856E-02  8.131354834E+04  2.665856123E+02  3.297440567E+02  2.707682717E+02  2.743996258E+02  4.241856234E-01 
        32  2.674433127E-02  1.170738851E-01  3.352942364E-02  8.075806067E+04  2.746180372E+02  3.294567161E+02  2.702968414E+02  2.774316421E+02  3.950814963E-01 
        33  2.797950643E-02  1.175445507E-01  3.622298897E-02  8.023739413E+04  2.824251202E+02  3.292364850E+02  2.699359165E+02  2.802349966E+02  3.663748237E-01 
        34  2.916313541E-02  1.180056499E-01  3.893937175E-02  7.994809286E+04  2.896393121E+02  3.291098455E+02  2.697286887E+02  2.821870519E+02  3.375572828E-01 
        35  3.031249539E-02  1.184785399E-01  4.167042727E-02  8.010842960E+04  2.954395231E+02  3.291148427E+02  2.697371273E+02  2.826400961E+02  3.104580955E-01 
        36  3.139929926E-02  1.189405785E-01  4.442941843E-02  8.041335938E+04  3.007249171E+02  3.292191514E+02  2.699078944E+02  2.825099511E+02  2.837189927E-01 
        37  3.242013936E-02  1.193808800E-01  4.721660669E-02  8.096716849E+04  3.057342122E+02  3.293416480E+02  2.701083394E+02  2.814790636E+02  2.546219707E-01 
        38  3.340677803E-02  1.198011670E-01  5.002067675E-02  8.218921539E+04  3.085340817E+02  3.299391156E+02  2.710891166E+02  2.780916728E+02  2.277535525E-01 
        39  3.430413654E-02  1.201853153E-01  5.285529857E-02  8.374976904E+04  3.102033119E+02  3.308806944E+02  2.726390972E+02  2.734925776E+02  2.020014608E-01 
        40  3.515433510E-02  1.205874318E-01  5.570324370E-02  8.563110107E+04  3.106555862E+02  3.319537582E+02  2.744106503E+02  2.678288631E+02  1.785901897E-01 
        41  3.592907297E-02  1.209644065E-01  5.857535950E-02  8.774794165E+04  3.096981773E+02  3.331073189E+02  2.763216653E+02  2.611779394E+02  1.590645332E-01 
        42  3.664355424E-02  1.213334730E-01  6.146049591E-02  8.998012537E+04  3.074129009E+02  3.342731290E+02  2.782590399E+02  2.540665936E+02  1.453345718E-01 
        43  3.727845098E-02  1.217084379E-01  6.437276718E-02  9.211617822E+04  3.043382654E+02  3.353991442E+02  2.801362000E+02  2.472931795E+02  1.378705376E-01 
        44  3.781448665E-02  1.220744111E-01  6.730672953E-02  9.390442236E+04  3.011015635E+02  3.363501806E+02  2.817267790E+02  2.416667023E+02  1.365521098E-01 
        45  3.826762164E-02  1.224563704E-01  7.025293559E-02  9.516089056E+04  2.982436893E+02  3.370700071E+02  2.829335530E+02  2.375035077E+02  1.393695766E-01 
        46  3.856443464E-02  1.228195695E-01  7.317567491E-02  9.588802734E+04  2.961899414E+02  3.375709229E+02  2.837747879E+02  2.350372162E+02  1.443099827E-01 
        47  3.882754171E-02  1.231963568E-01  7.616928387E-02  9.620721878E+04  2.948585719E+02  3.381167991E+02  2.846946929E+02  2.338056435E+02  1.505500781E-01 
        48  3.896508106E-02  1.235573809E-01  7.913505459E-02  9.626303125E+04  2.914401855E+02  3.390365448E+02  2.862580299E+02  2.285044594E+02  1.551548019E-01 
        49  3.903512947E-02  1.239238609E-01  8.213137167E-02  9.627715430E+04  2.832148311E+02  3.408164780E+02  2.892943192E+02  2.144316090E+02  1.607886499E-01 
        50  3.900153017E-02  1.243001337E-01  8.510504302E-02  9.630692014E+04  2.691231369E+02  3.437555128E+02  2.943169023E+02  1.889928816E+02  1.623007740E-01 
        51  3.889299026E-02  1.246700891E-01  8.806950082E-02  9.620160217E+04  2.534380400E+02  3.472188520E+02  3.002807443E+02  1.497693207E+02  1.405918966E-01 
        52  3.870303970E-02  1.250405990E-01  9.105247242E-02  9.635886987E+04  2.440678048E+02  3.501123767E+02  3.052822590E+02  1.134483682E+02  6.742262800E-02 
        53  3.847530202E-02  1.253810613E-01  9.402032493E-02  9.711738312E+04  2.417697546E+02  3.520242795E+02  3.086185901E+02  8.073068610E+01 -2.013580737E-01 
        54  3.809583015E-02  1.257752167E-01  9.695318516E-02  9.919267676E+04  2.399653625E+02  3.532533913E+02  3.107654686E+02  5.396236038E+01 -6.518528089E-01 
        55  3.767199372E-02  1.261489404E-01  9.992435767E-02  1.017615288E+05  2.395243130E+02  3.538346109E+02  3.117796059E+02  4.790139818E+01 -5.866954923E-01 
        56  3.723780727E-02  1.265196365E-01  1.028569506E-01  1.042235570E+05  2.374151800E+02  3.536656437E+02  3.114815356E+02  6.051453750E+01 -2.127317985E-01 
        57  3.672955052E-02  1.269046997E-01  1.057947981E-01  1.059742483E+05  2.375681345E+02  3.522490063E+02  3.089973245E+02  9.087335968E+01  1.679132227E-02 
        58  3.615520807E-02  1.273091289E-01  1.087154776E-01  1.069869094E+05  2.432428584E+02  3.496284685E+02  3.044235497E+02  1.297467546E+02  1.290789135E-01 
        59  3.556812424E-02  1.277144368E-01  1.116309472E-01  1.073922725E+05  2.532544267E+02  3.465939267E+02  2.991597028E+02  1.649393247E+02  1.781909082E-01 
        60  3.495651588E-02  1.281329458E-01  1.145394580E-01  1.075798423E+05  2.625024242E+02  3.443161292E+02  2.952330937E+02  1.873024731E+02  1.938483366E-01 
        61  3.433795015E-02  1.285471243E-01  1.174457346E-01  1.077270339E+05  2.680149705E+02  3.432412176E+02  2.933883090E+02  1.971856952E+02  1.946194971E-01 
        62  3.376061330E-02  1.289460490E-01  1.203607660E-01  1.078243229E+05  2.705771618E+02  3.429608850E+02  2.929086189E+02  2.002018754E+02  1.909344215E-01 
        63  3.331803132E-02  1.293309423E-01  1.232882868E-01  1.078623611E+05  2.720109116E+02  3.429595108E+02  2.929062494E+02  2.010315898E+02  1.869139883E-01 
        64  3.310586596E-02  1.296649637E-01  1.262581306E-01  1.078174933E+05  2.730330212E+02  3.429944835E+02  2.929659586E+02  2.013985664E+02  1.838559103E-01 
        65  3.306639982E-02  1.299493947E-01  1.292495641E-01  1.076990876E+05  2.738690821E+02  3.429939559E+02  2.929650737E+02  2.018143969E+02  1.821119244E-01 
        66  3.322486525E-02  1.302097713E-01  1.322380794E-01  1.075369434E+05  2.747122166E+02  3.429463093E+02  2.928836852E+02  2.026071491E+02  1.818532699E-01 
        67  3.356462385E-02  1.304573038E-01  1.352130229E-01  1.073637659E+05  2.756466313E+02  3.428741209E+02  2.927603506E+02  2.037188997E+02  1.825119896E-01 
        68  3.400410102E-02  1.306751199E-01  1.381765647E-01  1.071732935E+05  2.766214125E+02  3.427886753E+02  2.926144562E+02  2.050037198E+02  1.834428746E-01 
        69  3.451963359E-02  1.308741206E-01  1.411278790E-01  1.069398279E+05  2.776046836E+02  3.426993918E+02  2.924620745E+02  2.064305222E+02  1.848806452E-01 
        70  3.508991352E-02  1.310576265E-01  1.440660380E-01  1.066696088E+05  2.787466283E+02  3.425791922E+02  2.922569413E+02  2.080842397E+02  1.861927412E-01 
        71  3.570211579E-02  1.312503676E-01  1.470000000E-01  1.063210156E+05  2.800598640E+02  3.424395790E+02  2.920197868E+02  2.099616089E+02  1.870193146E-01 
        72 -2.843361623E-02  1.708417341E-01 -4.258217492E-02  8.203468164E+04  1.837799401E+02  3.299703569E+02  2.711394501E+02  3.443186703E+02  1.007634636E+00 
        73 -2.838826984E-02  1.709653765E-01 -3.916427879E-02  8.199636249E+04  1.842402170E+02  3.299551568E+02  2.711144791E+02  3.446175938E+02  1.006603938E+00 
        74 -2.835908450E-02  1.711140563E-01 -3.574649433E-02  8.231537488E+04  1.838733913E+02  3.301514018E+02  2.714371834E+02  3.437924585E+02  1.006371115E+00 
        75 -2.838361088E-02  1.712589164E-01 -3.232950605E-02  8.300852832E+04  1.829562817E+02  3.305356579E+02  2.720694504E+02  3.422687616E+02  1.006800190E+00 
        76 -2.841360827E-02  1.714319125E-01 -2.891476756E-02  8.385711475E+04  1.812695889E+02  3.310331821E+02  2.728889632E+02  3.400075159E+02  1.008602586E+00 
        77 -2.833774301E-02  1.716334782E-01 -2.549995819E-02  8.446956271E+04  1.801035105E+02  3.313618701E+02  2.734310915E+02  3.387184964E+02  1.010397246E+00 
        78 -2.791452343E-02  1.719215161E-01 -2.212016887E-02  8.462820410E+04  1.794129057E+02  3.314459286E+02  2.735698662E+02  3.384556694E+02  1.012360685E+00 
        79 -2.700703325E-02  1.722886754E-01 -1.884820631E-02  8.428233521E+04  1.795871997E+02  3.312330675E+02  2.732186804E+02  3.398449450E+02  1.014202796E+00 
        80 -2.544395246E-02  1.727209334E-01 -1.584518523E-02  8.312127911E+04  1.813692577E+02  3.305753329E+02  2.721348810E+02  3.431854329E+02  1.013991419E+00 
        81 -2.351536464E-02  1.732363399E-01 -1.306823492E-02  8.107799039E+04  1.853819169E+02  3.294125623E+02  2.702241684E+02  3.490894976E+02  1.010975219E+00 
        82 -2.134527601E-02  1.737374909E-01 -1.047435973E-02  7.829609166E+04  1.918850872E+02  3.277852798E+02  2.675614160E+02  3.571760910E+02  1.004072547E+00 
        83 -1.897326710E-02  1.742189522E-01 -8.035177519E-03  7.532030637E+04  1.998787813E+02  3.259873875E+02  2.646343422E+02  3.657912947E+02  9.938641898E-01 
        84 -1.652827274E-02  1.746780172E-01 -5.688541800E-03  7.307714777E+04  2.067831564E+02  3.245970039E+02  2.623812971E+02  3.724139791E+02  9.839034574E-01 
        85 -1.397929867E-02  1.751251779E-01 -3.446989688E-03  7.251916101E+04  2.098343644E+02  3.242479935E+02  2.618169498E+02  3.743281031E+02  9.774534777E-01 
        86 -1.139011487E-02  1.755573757E-01 -1.256774906E-03  7.419960437E+04  2.086184683E+02  3.253004322E+02  2.635206413E+02  3.701707282E+02  9.729259294E-01 
        87 -8.734274343E-03  1.759085237E-01  8.667805443E-04  7.956129852E+04  2.021747905E+02  3.285598252E+02  2.688325377E+02  3.557815797E+02  9.667761587E-01 
        88 -6.073383534E-03  1.762548475E-01  2.984781313E-03  8.896416199E+04  1.905290685E+02  3.337950981E+02  2.774668767E+02  3.297109599E+02  9.623906389E-01 
        89 -3.359730182E-03  1.765819110E-01  5.053045394E-03  9.836257214E+04  1.760552596E+02  3.384105263E+02  2.851902343E+02  3.040164037E+02  9.788516616E-01 
        90 -6.741955509E-04  1.768270807E-01  7.130208361E-03  9.792070668E+04  1.651483662E+02  3.382290266E+02  2.848849817E+02  3.063305823E+02  1.020914968E+00 
        91  2.027043660E-03  1.770783858E-01  9.208570588E-03  7.933882261E+04  1.919736607E+02  3.281221065E+02  2.681153976E+02  3.565548820E+02  1.002993727E+00 
        92  4.731686997E-03  1.772422585E-01  1.127155269E-02  7.205828058E+04  2.149462720E+02  3.239597358E+02  2.613528923E+02  3.780038878E+02  9.673814197E-01 
        93  7.454465044E-03  1.773874983E-01  1.334309669E-02  7.270592879E+04  2.108400288E+02  3.243676118E+02  2.620112622E+02  3.759820812E+02  9.769131788E-01 
        94  1.015989937E-02  1.775222933E-01  1.545596277E-02  7.042180324E+04  2.169055696E+02  3.230210360E+02  2.598444823E+02  3.823286377E+02  9.697904066E-01 
        95  1.284858280E-02  1.775661421E-01  1.756817794E-02  6.706072107E+04  2.275727949E+02  3.207886285E+02  2.562667646E+02  3.918752625E+02  9.545516525E-01 
        96  1.551966693E-02  1.776138061E-01  1.970369132E-02  6.407128625E+04  2.373162885E+02  3.186412582E+02  2.528477113E+02  4.008792968E+02  9.419365097E-01 
        97  1.817410325E-02  1.776258069E-01  2.186017323E-02  6.166962292E+04  2.458380792E+02  3.168908167E+02  2.500754566E+02  4.082860780E+02  9.303047433E-01 
        98  2.080993586E-02  1.775631240E-01  2.403936301E-02  6.006595691E+04  2.527226090E+02  3.157865157E+02  2.483325758E+02  4.131448441E+02  9.185534064E-01 
        99  2.341570779E-02  1.774969016E-01  2.625394818E-02  5.978330444E+04  2.572287183E+02  3.156355991E+02  2.480960240E+02  4.142572651E+02  9.060047511E-01 
       100  2.600295182E-02  1.773818036E-01  2.848806157E-02  6.190142798E+04  2.576588097E+02  3.171671295E+02  2.505270138E+02  4.085176096E+02  8.915882632E-01 
       101  2.856627515E-02  1.771883875E-01  3.074502562E-02  6.766968848E+04  2.522751637E+02  3.211183119E+02  2.568487091E+02  3.921314955E+02  8.742939681E-01 
       102  3.110662233E-02  1.769811535E-01  3.302644514E-02  7.564244312E+04  2.451341896E+02  3.261804934E+02  2.650066328E+02  3.697375984E+02  8.520892952E-01 
       103  3.362247542E-02  1.767159818E-01  3.532849163E-02  8.127390808E+04  2.434963512E+02  3.295179529E+02  2.704124389E+02  3.541864643E+02  8.268892486E-01 
       104  3.610895472E-02  1.763647845E-01  3.765120331E-02  8.168716638E+04  2.499865956E+02  3.296757903E+02  2.706600432E+02  3.537748260E+02  8.043078566E-01 
       105  3.856497337E-02  1.759966372E-01  4.000321012E-02  7.932411713E+04  2.590498919E+02  3.283348656E+02  2.684614123E+02  3.613475946E+02  7.880315585E-01 
       106  4.103059304E-02  1.755360248E-01  4.234569910E-02  7.792754415E+04  2.650829128E+02  3.277246026E+02  2.674617568E+02  3.653125309E+02  7.751473162E-01 
       107  4.340106546E-02  1.750377176E-01  4.474435622E-02  7.948094931E+04  2.667499536E+02  3.288013523E+02  2.692264104E+02  3.608350286E+02  7.610309965E-01 
       108  4.575540032E-02  1.745445103E-01  4.717695363E-02  8.422699475E+04  2.638007591E+02  3.315300522E+02  2.737205095E+02  3.478796859E+02  7.471990865E-01 
       109  4.807037784E-02  1.739953488E-01  4.963532790E-02  9.042434058E+04  2.591318665E+02  3.348159742E+02  2.791712980E+02  3.306345539E+02  7.328353617E-01 
       110  5.034733117E-02  1.734133857E-01  5.212084081E-02  9.520714990E+04  2.576962891E+02  3.371923580E+02  2.831411724E+02  3.178296280E+02  7.162286974E-01 
       111  5.258765486E-02  1.728405975E-01  5.464144749E-02  9.832144629E+04  2.588507328E+02  3.387127476E+02  2.856992130E+02  3.102566185E+02  7.000782043E-01 
       112  5.479076840E-02  1.722430532E-01  5.718902978E-02  1.012513647E+05  2.591817656E+02  3.401975546E+02  2.882095127E+02  3.029145584E+02  6.875400487E-01 
       113  5.694737683E-02  1.716020731E-01  5.976586917E-02  1.044027050E+05  2.583717988E+02  3.417607541E+02  2.908637831E+02  2.940048878E+02  6.771672829E-01 
       114  5.911848447E-02  1.709340834E-01  6.233872565E-02  1.073828032E+05  2.574622618E+02  3.431658415E+02  2.932593535E+02  2.859117833E+02  6.687965571E-01 
       115  6.119351897E-02  1.703313828E-01  6.496775561E-02  1.099430813E+05  2.567751989E+02  3.442948046E+02  2.951922822E+02  2.783724356E+02  6.613088977E-01 
       116  6.319798910E-02  1.696485115E-01  6.765543605E-02  1.123621436E+05  2.560163159E+02  3.453452582E+02  2.969959679E+02  2.716518173E+02  6.553528486E-01 
       117  6.520189851E-02  1.689621155E-01  7.034628384E-02  1.150290425E+05  2.544452915E+02  3.465143776E+02  2.990102901E+02  2.647342834E+02  6.529859919E-01 
       118  6.717992039E-02  1.682884043E-01  7.305807409E-02  1.176818325E+05  2.522057838E+02  3.476365385E+02  3.009497938E+02  2.586398525E+02  6.548660472E-01 
       119  6.910755662E-02  1.675987334E-01  7.579818779E-02  1.190478647E+05  2.512421410E+02  3.481691139E+02  3.018725283E+02  2.547474318E+02  6.547887227E-01 
       120  7.101404689E-02  1.668389198E-01  7.852135391E-02  1.202277056E+05  2.475330771E+02  3.487252023E+02  3.028377249E+02  2.514916294E+02  6.665039775E-01 
