nodenumber     x-coordinate     y-coordinate     z-coordinate         pressure velocity-magnitude      sound-speed      temperature rel-velocity-magnitude relative-velocity-angle 
         1 -2.216901913E-02  1.039879580E-01 -4.300600202E-02  8.754674982E+04  1.539574154E+02  3.330489253E+02  2.762224138E+02  2.358004089E+02  8.594226164E-01 
         2 -2.197401757E-02  1.042260031E-01 -4.002397295E-02  8.746689722E+04  1.544334069E+02  3.330057789E+02  2.761509005E+02  2.363413062E+02  8.589153662E-01 
         3 -2.150271627E-02  1.045375264E-01 -3.708169353E-02  8.736565796E+04  1.550491906E+02  3.329506345E+02  2.760594573E+02  2.370102979E+02  8.581938464E-01 
         4 -2.072290556E-02  1.049359494E-01 -3.421635317E-02  8.725051978E+04  1.557368634E+02  3.328900194E+02  2.759588947E+02  2.377506251E+02  8.574031666E-01 
         5 -1.964621854E-02  1.053757771E-01 -3.145501365E-02  8.712398804E+04  1.564414740E+02  3.328253880E+02  2.758517451E+02  2.385039349E+02  8.566101156E-01 
         6 -1.833909717E-02  1.058829391E-01 -2.880182754E-02  8.697335449E+04  1.572139978E+02  3.327474842E+02  2.757226033E+02  2.394204144E+02  8.560674954E-01 
         7 -1.686396899E-02  1.064019756E-01 -2.624136390E-02  8.679596411E+04  1.580701923E+02  3.326533031E+02  2.755665770E+02  2.404367151E+02  8.554619215E-01 
         8 -1.524276490E-02  1.069101094E-01 -2.376908005E-02  8.659681360E+04  1.590427153E+02  3.325459504E+02  2.753887396E+02  2.415555911E+02  8.546317350E-01 
         9 -1.353040875E-02  1.074492491E-01 -2.136449246E-02  8.639225293E+04  1.601762850E+02  3.324352412E+02  2.752054527E+02  2.427951519E+02  8.534052428E-01 
        10 -1.175719847E-02  1.079385502E-01 -1.899452623E-02  8.621972186E+04  1.613968816E+02  3.323415461E+02  2.750503151E+02  2.438615668E+02  8.511255728E-01 
        11 -9.920451205E-03  1.084473482E-01 -1.667649769E-02  8.613754105E+04  1.625524166E+02  3.322952145E+02  2.749736528E+02  2.446139271E+02  8.480724134E-01 
        12 -8.053093039E-03  1.089314126E-01 -1.437870322E-02  8.624640421E+04  1.631766600E+02  3.323522688E+02  2.750680413E+02  2.445130651E+02  8.448626245E-01 
        13 -6.139911673E-03  1.093816015E-01 -1.211111235E-02  8.665044775E+04  1.627102323E+02  3.325716219E+02  2.754312992E+02  2.432873430E+02  8.436562624E-01 
        14 -4.213714023E-03  1.098625599E-01 -9.853315987E-03  8.744350537E+04  1.606893177E+02  3.329950542E+02  2.761331692E+02  2.407675457E+02  8.465893120E-01 
        15 -2.267252226E-03  1.102821410E-01 -7.616721013E-03  8.857699805E+04  1.563054800E+02  3.336099758E+02  2.771539822E+02  2.371257582E+02  8.589273244E-01 
        16 -3.058463972E-04  1.106716081E-01 -5.380345181E-03  8.952014038E+04  1.494834046E+02  3.340723276E+02  2.779228926E+02  2.339531589E+02  8.865882698E-01 
        17  1.649896870E-03  1.110991589E-01 -3.144821902E-03  8.708415234E+04  1.476196179E+02  3.327634034E+02  2.757506635E+02  2.444442904E+02  9.334139470E-01 
        18  3.605378217E-03  1.114680886E-01 -8.997268064E-04  7.598875317E+04  1.748525901E+02  3.264044666E+02  2.653116436E+02  2.853395853E+02  9.408848453E-01 
        19  5.548952344E-03  1.118349081E-01  1.356589372E-03  7.003339728E+04  2.075017449E+02  3.228411562E+02  2.595515325E+02  3.059892831E+02  8.483013087E-01 
        20  7.472030685E-03  1.121892539E-01  3.633809071E-03  7.268376370E+04  2.118664592E+02  3.245525955E+02  2.623136348E+02  2.982199454E+02  7.920511214E-01 
        21  9.366594022E-03  1.125505666E-01  5.932977735E-03  7.625610596E+04  2.087277063E+02  3.267377830E+02  2.658563645E+02  2.854871027E+02  7.584331878E-01 
        22  1.122147558E-02  1.129077905E-01  8.263617067E-03  7.868282331E+04  2.087671058E+02  3.281081682E+02  2.680897875E+02  2.770159647E+02  7.265260816E-01 
        23  1.303284284E-02  1.132507638E-01  1.062953057E-02  8.028814314E+04  2.113076075E+02  3.289665223E+02  2.694933774E+02  2.717634451E+02  6.945144050E-01 
        24  1.479928419E-02  1.136234762E-01  1.303021626E-02  8.148357895E+04  2.157776356E+02  3.296189903E+02  2.705634261E+02  2.681593077E+02  6.587795170E-01 
        25  1.649617427E-02  1.139938279E-01  1.547769530E-02  8.257452228E+04  2.207272179E+02  3.302138925E+02  2.715409970E+02  2.650544436E+02  6.225068620E-01 
        26  1.811807173E-02  1.143837002E-01  1.797032872E-02  8.338399573E+04  2.260912414E+02  3.306574464E+02  2.722704673E+02  2.629738898E+02  5.879698750E-01 
        27  1.968166241E-02  1.148013513E-01  2.049621310E-02  8.356488544E+04  2.329496906E+02  3.307695289E+02  2.724548306E+02  2.631508648E+02  5.538984835E-01 
        28  2.119101764E-02  1.152299366E-01  2.305322148E-02  8.305705503E+04  2.414863830E+02  3.305602811E+02  2.721102139E+02  2.655684606E+02  5.190864208E-01 
        29  2.266338778E-02  1.156643914E-01  2.563116057E-02  8.241997211E+04  2.502814807E+02  3.302362969E+02  2.715771320E+02  2.686189609E+02  4.853365778E-01 
        30  2.408077791E-02  1.161159634E-01  2.823658064E-02  8.187196039E+04  2.584469984E+02  3.299792111E+02  2.711543565E+02  2.714261370E+02  4.542223634E-01 
        31  2.544088325E-02  1.165921105E-01  3.086849856E-02  8.132632910E+04  2.665493059E+02  3.296786852E+02  2.706608431E+02  2.743491936E+02  4.241716429E-01 
        32  2.674433127E-02  1.170738851E-01  3.352942364E-02  8.076141321E+04  2.745740709E+02  3.293652000E+02  2.701463940E+02  2.773239946E+02  3.949163062E-01 
        33  2.797950643E-02  1.175445507E-01  3.622298897E-02  8.022086664E+04  2.823886206E+02  3.291079590E+02  2.697246121E+02  2.800582414E+02  3.659094634E-01 
        34  2.916313541E-02  1.180056499E-01  3.893937175E-02  7.990867780E+04  2.895720233E+02  3.289804692E+02  2.695160525E+02  2.819762661E+02  3.370976130E-01 
        35  3.031249539E-02  1.184785399E-01  4.167042727E-02  8.006059146E+04  2.953576256E+02  3.290289121E+02  2.695958290E+02  2.824505496E+02  3.101403357E-01 
        36  3.139929926E-02  1.189405785E-01  4.442941843E-02  8.037747427E+04  3.006379864E+02  3.291751376E+02  2.698354053E+02  2.823108020E+02  2.833903321E-01 
        37  3.242013936E-02  1.193808800E-01  4.721660669E-02  8.093729994E+04  3.056553295E+02  3.293446884E+02  2.701132570E+02  2.813683882E+02  2.546063935E-01 
        38  3.340677803E-02  1.198011670E-01  5.002067675E-02  8.216141052E+04  3.085580297E+02  3.299384903E+02  2.710880342E+02  2.781759503E+02  2.279684923E-01 
        39  3.430413654E-02  1.201853153E-01  5.285529857E-02  8.371151099E+04  3.102764692E+02  3.308633223E+02  2.726104498E+02  2.736089296E+02  2.020830922E-01 
        40  3.515433510E-02  1.205874318E-01  5.570324370E-02  8.558217920E+04  3.107969379E+02  3.319296837E+02  2.743707428E+02  2.679976940E+02  1.784995319E-01 
        41  3.592907297E-02  1.209644065E-01  5.857535950E-02  8.769275122E+04  3.099324903E+02  3.330792704E+02  2.762749505E+02  2.614151230E+02  1.587140714E-01 
        42  3.664355424E-02  1.213334730E-01  6.146049591E-02  8.993501624E+04  3.076049733E+02  3.342565260E+02  2.782314677E+02  2.542454157E+02  1.449766378E-01 
        43  3.727845098E-02  1.217084379E-01  6.437276718E-02  9.210338867E+04  3.043704739E+02  3.354109735E+02  2.801560822E+02  2.473252954E+02  1.378199700E-01 
        44  3.781448665E-02  1.220744111E-01  6.730672953E-02  9.393850366E+04  3.010352221E+02  3.363882504E+02  2.817905760E+02  2.415837893E+02  1.365876864E-01 
        45  3.826762164E-02  1.224563704E-01  7.025293559E-02  9.524263519E+04  2.982658088E+02  3.370945170E+02  2.829747641E+02  2.376244142E+02  1.397457501E-01 
        46  3.856443464E-02  1.228195695E-01  7.317567491E-02  9.602055469E+04  2.960072098E+02  3.376196136E+02  2.838569183E+02  2.349541397E+02  1.451190598E-01 
        47  3.882754171E-02  1.231963568E-01  7.616928387E-02  9.642826712E+04  2.941900964E+02  3.382652422E+02  2.849447808E+02  2.331412555E+02  1.518454025E-01 
        48  3.896508106E-02  1.235573809E-01  7.913505459E-02  9.654677344E+04  2.907682991E+02  3.392054520E+02  2.865426979E+02  2.280323601E+02  1.572853364E-01 
        49  3.903512947E-02  1.239238609E-01  8.213137167E-02  9.649824792E+04  2.825872450E+02  3.409744532E+02  2.895622864E+02  2.141752030E+02  1.644020951E-01 
        50  3.900153017E-02  1.243001337E-01  8.510504302E-02  9.637433469E+04  2.686515000E+02  3.438800107E+02  2.945319809E+02  1.886812710E+02  1.662010277E-01 
        51  3.889299026E-02  1.246700891E-01  8.806950082E-02  9.627804419E+04  2.526772273E+02  3.473552384E+02  3.005188754E+02  1.486426716E+02  1.456447592E-01 
        52  3.870303970E-02  1.250405990E-01  9.105247242E-02  9.634898828E+04  2.432813587E+02  3.502130413E+02  3.054577961E+02  1.110387357E+02  6.736567104E-02 
        53  3.847530202E-02  1.253810613E-01  9.402032493E-02  9.686942438E+04  2.414090712E+02  3.519477041E+02  3.084846539E+02  7.795849341E+01 -2.068124747E-01 
        54  3.809583015E-02  1.257752167E-01  9.695318516E-02  9.879597559E+04  2.403737335E+02  3.531304588E+02  3.105484047E+02  5.174161530E+01 -7.474368699E-01 
        55  3.767199372E-02  1.261489404E-01  9.992435767E-02  1.014208755E+05  2.398355885E+02  3.536770039E+02  3.115017276E+02  4.542607665E+01 -7.228790317E-01 
        56  3.723780727E-02  1.265196365E-01  1.028569506E-01  1.040525020E+05  2.376240120E+02  3.534812913E+02  3.111574294E+02  5.962185419E+01 -2.529020302E-01 
        57  3.672955052E-02  1.269046997E-01  1.057947981E-01  1.058160521E+05  2.380333889E+02  3.520417757E+02  3.086346469E+02  9.193617964E+01  1.212558395E-02 
        58  3.615520807E-02  1.273091289E-01  1.087154776E-01  1.068359072E+05  2.438465109E+02  3.494043989E+02  3.040338297E+02  1.322385955E+02  1.324369134E-01 
        59  3.556812424E-02  1.277144368E-01  1.116309472E-01  1.073759517E+05  2.540390837E+02  3.464318800E+02  2.988793070E+02  1.677239833E+02  1.822349976E-01 
        60  3.495651588E-02  1.281329458E-01  1.145394580E-01  1.077235056E+05  2.632706561E+02  3.442938027E+02  2.951941581E+02  1.889666352E+02  1.946237567E-01 
        61  3.433795015E-02  1.285471243E-01  1.174457346E-01  1.078797170E+05  2.683445947E+02  3.432823491E+02  2.934585505E+02  1.975118539E+02  1.936806075E-01 
        62  3.376061330E-02  1.289460490E-01  1.203607660E-01  1.078622421E+05  2.703611424E+02  3.429706328E+02  2.929252851E+02  1.997813590E+02  1.907412237E-01 
        63  3.331803132E-02  1.293309423E-01  1.232882868E-01  1.078535561E+05  2.715666175E+02  3.429474766E+02  2.928856565E+02  2.005341374E+02  1.878536039E-01 
        64  3.310586596E-02  1.296649637E-01  1.262581306E-01  1.078493525E+05  2.726363952E+02  3.430009792E+02  2.929770324E+02  2.011330382E+02  1.853342811E-01 
        65  3.306639982E-02  1.299493947E-01  1.292495641E-01  1.077835553E+05  2.735424830E+02  3.430319002E+02  2.930298779E+02  2.016661204E+02  1.835766817E-01 
        66  3.322486525E-02  1.302097713E-01  1.322380794E-01  1.076716427E+05  2.745149287E+02  3.430000987E+02  2.929755765E+02  2.024795675E+02  1.825970725E-01 
        67  3.356462385E-02  1.304573038E-01  1.352130229E-01  1.075342040E+05  2.755244203E+02  3.429434764E+02  2.928788410E+02  2.035768437E+02  1.827474253E-01 
        68  3.400410102E-02  1.306751199E-01  1.381765647E-01  1.073370934E+05  2.765363770E+02  3.428664618E+02  2.927473254E+02  2.048882263E+02  1.835461536E-01 
        69  3.451963359E-02  1.308741206E-01  1.411278790E-01  1.070782114E+05  2.776848304E+02  3.427532992E+02  2.925541046E+02  2.064374583E+02  1.844228483E-01 
        70  3.508991352E-02  1.310576265E-01  1.440660380E-01  1.067554803E+05  2.788467751E+02  3.426186419E+02  2.923242795E+02  2.080777745E+02  1.855737939E-01 
        71  3.570211579E-02  1.312503676E-01  1.470000000E-01  1.063207939E+05  2.802882843E+02  3.424135628E+02  2.919752464E+02  2.102805347E+02  1.867975406E-01 
        72 -2.843361623E-02  1.708417341E-01 -4.258217492E-02  8.203015723E+04  1.837510195E+02  3.299744616E+02  2.711461840E+02  3.442919197E+02  1.007685956E+00 
        73 -2.838826984E-02  1.709653765E-01 -3.916427879E-02  8.199433698E+04  1.842731960E+02  3.299453371E+02  2.710983267E+02  3.446576648E+02  1.006564952E+00 
        74 -2.835908450E-02  1.711140563E-01 -3.574649433E-02  8.230985938E+04  1.838471388E+02  3.301482189E+02  2.714319344E+02  3.436963387E+02  1.006294365E+00 
        75 -2.838361088E-02  1.712589164E-01 -3.232950605E-02  8.300826074E+04  1.829212346E+02  3.305354500E+02  2.720691547E+02  3.423614111E+02  1.007085718E+00 
        76 -2.841360827E-02  1.714319125E-01 -2.891476756E-02  8.384035242E+04  1.812211628E+02  3.310310788E+02  2.728855424E+02  3.398454366E+02  1.008494362E+00 
        77 -2.833774301E-02  1.716334782E-01 -2.549995819E-02  8.443876312E+04  1.801601036E+02  3.313425360E+02  2.733991916E+02  3.389363956E+02  1.010573485E+00 
        78 -2.791452343E-02  1.719215161E-01 -2.212016887E-02  8.459324902E+04  1.795333223E+02  3.314332867E+02  2.735490294E+02  3.384331532E+02  1.011920802E+00 
        79 -2.700703325E-02  1.722886754E-01 -1.884820631E-02  8.426856689E+04  1.796414843E+02  3.312440205E+02  2.732367411E+02  3.396888504E+02  1.013753727E+00 
        80 -2.544395246E-02  1.727209334E-01 -1.584518523E-02  8.310652802E+04  1.814868336E+02  3.305676069E+02  2.721222005E+02  3.434380348E+02  1.014036847E+00 
        81 -2.351536464E-02  1.732363399E-01 -1.306823492E-02  8.110948303E+04  1.854189211E+02  3.294016774E+02  2.702063238E+02  3.490293750E+02  1.010747275E+00 
        82 -2.134527601E-02  1.737374909E-01 -1.047435973E-02  7.840132025E+04  1.916262607E+02  3.278392816E+02  2.676495393E+02  3.569322114E+02  1.004479829E+00 
        83 -1.897326710E-02  1.742189522E-01 -8.035177519E-03  7.545770886E+04  1.993962497E+02  3.260760870E+02  2.647783521E+02  3.655360224E+02  9.949914939E-01 
        84 -1.652827274E-02  1.746780172E-01 -5.688541800E-03  7.314275409E+04  2.065526412E+02  3.246273942E+02  2.624304152E+02  3.724287453E+02  9.847442778E-01 
        85 -1.397929867E-02  1.751251779E-01 -3.446989688E-03  7.249278882E+04  2.099641590E+02  3.242174149E+02  2.617678828E+02  3.743957186E+02  9.772611707E-01 
        86 -1.139011487E-02  1.755573757E-01 -1.256774906E-03  7.417169690E+04  2.086957402E+02  3.252783489E+02  2.634858928E+02  3.696140709E+02  9.717275053E-01 
        87 -8.734274343E-03  1.759085237E-01  8.667805443E-04  7.943507495E+04  2.027392155E+02  3.284419901E+02  2.686423147E+02  3.556181455E+02  9.651580593E-01 
        88 -6.073383534E-03  1.762548475E-01  2.984781313E-03  8.883031824E+04  1.909400913E+02  3.336810451E+02  2.772793899E+02  3.304508991E+02  9.628827823E-01 
        89 -3.359730182E-03  1.765819110E-01  5.053045394E-03  9.842012982E+04  1.759098016E+02  3.384415946E+02  2.852431444E+02  3.035055058E+02  9.788691984E-01 
        90 -6.741955509E-04  1.768270807E-01  7.130208361E-03  9.818980271E+04  1.650286408E+02  3.383985532E+02  2.851706885E+02  3.052631778E+02  1.019545470E+00 
        91  2.027043660E-03  1.770783858E-01  9.208570588E-03  7.936705810E+04  1.909220227E+02  3.283036139E+02  2.684130416E+02  3.566839872E+02  1.006894665E+00 
        92  4.731686997E-03  1.772422585E-01  1.127155269E-02  7.209202139E+04  2.143574018E+02  3.239685367E+02  2.613681893E+02  3.760865287E+02  9.655467464E-01 
        93  7.454465044E-03  1.773874983E-01  1.334309669E-02  7.282706566E+04  2.109492720E+02  3.242239643E+02  2.617793394E+02  3.754930675E+02  9.755738329E-01 
        94  1.015989937E-02  1.775222933E-01  1.545596277E-02  7.048377499E+04  2.178497752E+02  3.228368778E+02  2.595481161E+02  3.831256074E+02  9.683602098E-01 
        95  1.284858280E-02  1.775661421E-01  1.756817794E-02  6.707839520E+04  2.283348242E+02  3.207585933E+02  2.562183503E+02  3.924083200E+02  9.531679070E-01 
        96  1.551966693E-02  1.776138061E-01  1.970369132E-02  6.409795355E+04  2.371345541E+02  3.187879987E+02  2.530800643E+02  4.006779470E+02  9.421004346E-01 
        97  1.817410325E-02  1.776258069E-01  2.186017323E-02  6.166409229E+04  2.454030066E+02  3.170095229E+02  2.502633543E+02  4.080713263E+02  9.312632419E-01 
        98  2.080993586E-02  1.775631240E-01  2.403936301E-02  6.004254907E+04  2.524452653E+02  3.157948470E+02  2.483460660E+02  4.128588600E+02  9.188094493E-01 
        99  2.341570779E-02  1.774969016E-01  2.625394818E-02  5.978188757E+04  2.570371318E+02  3.156158686E+02  2.480649166E+02  4.140962791E+02  9.062868264E-01 
       100  2.600295182E-02  1.773818036E-01  2.848806157E-02  6.182674170E+04  2.578899689E+02  3.171074858E+02  2.504333849E+02  4.088414288E+02  8.915622048E-01 
       101  2.856627515E-02  1.771883875E-01  3.074502562E-02  6.749781812E+04  2.525112467E+02  3.211112366E+02  2.568412580E+02  3.926537838E+02  8.746482953E-01 
       102  3.110662233E-02  1.769811535E-01  3.302644514E-02  7.552125977E+04  2.452092314E+02  3.262926102E+02  2.651911163E+02  3.698966169E+02  8.523436189E-01 
       103  3.362247542E-02  1.767159818E-01  3.532849163E-02  8.133517480E+04  2.440142808E+02  3.296163378E+02  2.705743442E+02  3.540498905E+02  8.251587134E-01 
       104  3.610895472E-02  1.763647845E-01  3.765120331E-02  8.186169897E+04  2.499912560E+02  3.297454257E+02  2.707748799E+02  3.533776126E+02  8.036719067E-01 
       105  3.856497337E-02  1.759966372E-01  4.000321012E-02  7.944027774E+04  2.578695621E+02  3.284047554E+02  2.685760903E+02  3.603267088E+02  7.900805594E-01 
       106  4.103059304E-02  1.755360248E-01  4.234569910E-02  7.796429080E+04  2.640433024E+02  3.276941767E+02  2.674120764E+02  3.647781314E+02  7.776308866E-01 
       107  4.340106546E-02  1.750377176E-01  4.474435622E-02  7.949244664E+04  2.665469182E+02  3.286458460E+02  2.689715013E+02  3.611632571E+02  7.623519159E-01 
       108  4.575540032E-02  1.745445103E-01  4.717695363E-02  8.411054578E+04  2.641672530E+02  3.313408179E+02  2.734078856E+02  3.487438598E+02  7.474843590E-01 
       109  4.807037784E-02  1.739953488E-01  4.963532790E-02  9.027194385E+04  2.598644400E+02  3.346671810E+02  2.789239206E+02  3.317419300E+02  7.322135456E-01 
       110  5.034733117E-02  1.734133857E-01  5.212084081E-02  9.519396533E+04  2.577610703E+02  3.372316151E+02  2.832081280E+02  3.180287647E+02  7.164032646E-01 
       111  5.258765486E-02  1.728405975E-01  5.464144749E-02  9.826434521E+04  2.584561024E+02  3.387623024E+02  2.857824039E+02  3.097148228E+02  7.006227151E-01 
       112  5.479076840E-02  1.722430532E-01  5.718902978E-02  1.010140193E+05  2.589644632E+02  3.400747385E+02  2.880011330E+02  3.025840693E+02  6.878151465E-01 
       113  5.694737683E-02  1.716020731E-01  5.976586917E-02  1.041560724E+05  2.585331581E+02  3.415359693E+02  2.904811931E+02  2.939608927E+02  6.765612476E-01 
       114  5.911848447E-02  1.709340834E-01  6.233872565E-02  1.073378339E+05  2.574797317E+02  3.430803056E+02  2.931135739E+02  2.860165132E+02  6.688970839E-01 
       115  6.119351897E-02  1.703313828E-01  6.496775561E-02  1.100983115E+05  2.568065047E+02  3.443537149E+02  2.952934389E+02  2.787327847E+02  6.616926845E-01 
       116  6.319798910E-02  1.696485115E-01  6.765543605E-02  1.127635208E+05  2.554302149E+02  3.455504851E+02  2.973491831E+02  2.715434642E+02  6.575317122E-01 
       117  6.520189851E-02  1.689621155E-01  7.034628384E-02  1.157651660E+05  2.533981400E+02  3.467878971E+02  2.994825964E+02  2.638476334E+02  6.560576223E-01 
       118  6.717992039E-02  1.682884043E-01  7.305807409E-02  1.172291084E+05  2.522466784E+02  3.474690809E+02  3.006599426E+02  2.595923605E+02  6.558066718E-01 
       119  6.910755662E-02  1.675987334E-01  7.579818779E-02  1.188106107E+05  2.512748916E+02  3.480284164E+02  3.016285517E+02  2.552787080E+02  6.552672470E-01 
       120  7.101404689E-02  1.668389198E-01  7.852135391E-02  1.198765776E+05  2.483466258E+02  3.485477607E+02  3.025296068E+02  2.523565254E+02  6.640675887E-01 
