nodenumber     x-coordinate     y-coordinate     z-coordinate         pressure velocity-magnitude      sound-speed      temperature rel-velocity-magnitude relative-velocity-angle 
         1 -2.216901913E-02  1.039879580E-01 -4.300600202E-02  8.755115399E+04  1.539529490E+02  3.330515712E+02  2.762267892E+02  2.357990115E+02  8.594430991E-01 
         2 -2.197401757E-02  1.042260031E-01 -4.002397295E-02  8.747270587E+04  1.544229023E+02  3.330097648E+02  2.761575280E+02  2.363360188E+02  8.589566986E-01 
         3 -2.150271627E-02  1.045375264E-01 -3.708169353E-02  8.736868445E+04  1.550444844E+02  3.329531505E+02  2.760636001E+02  2.370100775E+02  8.582189153E-01 
         4 -2.072290556E-02  1.049359494E-01 -3.421635317E-02  8.724930127E+04  1.557347248E+02  3.328902717E+02  2.759593062E+02  2.377390566E+02  8.573732078E-01 
         5 -1.964621854E-02  1.053757771E-01 -3.145501365E-02  8.711818921E+04  1.564456382E+02  3.328227358E+02  2.758473926E+02  2.385126348E+02  8.566198684E-01 
         6 -1.833909717E-02  1.058829391E-01 -2.880182754E-02  8.696670947E+04  1.572142892E+02  3.327444811E+02  2.757176132E+02  2.394200773E+02  8.560664542E-01 
         7 -1.686396899E-02  1.064019756E-01 -2.624136390E-02  8.680483472E+04  1.580192065E+02  3.326590643E+02  2.755761385E+02  2.403980503E+02  8.556096405E-01 
         8 -1.524276490E-02  1.069101094E-01 -2.376908005E-02  8.663077026E+04  1.589204745E+02  3.325648184E+02  2.754200010E+02  2.414623952E+02  8.549858872E-01 
         9 -1.353040875E-02  1.074492491E-01 -2.136449246E-02  8.641133496E+04  1.600911756E+02  3.324448018E+02  2.752212729E+02  2.427253206E+02  8.536239555E-01 
        10 -1.175719847E-02  1.079385502E-01 -1.899452623E-02  8.619380188E+04  1.614172325E+02  3.323248568E+02  2.750227213E+02  2.438802207E+02  8.510485226E-01 
        11 -9.920451205E-03  1.084473482E-01 -1.667649769E-02  8.608160803E+04  1.626668510E+02  3.322604614E+02  2.749161364E+02  2.447395324E+02  8.478390221E-01 
        12 -8.053093039E-03  1.089314126E-01 -1.437870322E-02  8.620512274E+04  1.632660426E+02  3.323274431E+02  2.750269992E+02  2.446728930E+02  8.449323839E-01 
        13 -6.139911673E-03  1.093816015E-01 -1.211111235E-02  8.666883887E+04  1.627301645E+02  3.325776882E+02  2.754413466E+02  2.433550830E+02  8.438026477E-01 
        14 -4.213714023E-03  1.098625599E-01 -9.853315987E-03  8.752337256E+04  1.604776402E+02  3.330445328E+02  2.762152405E+02  2.406486034E+02  8.473535515E-01 
        15 -2.267252226E-03  1.102821410E-01 -7.616721013E-03  8.858346826E+04  1.563746157E+02  3.336052208E+02  2.771461382E+02  2.370455065E+02  8.583094589E-01 
        16 -3.058463972E-04  1.106716081E-01 -5.380345181E-03  8.935459790E+04  1.500566626E+02  3.339846220E+02  2.777769747E+02  2.343775706E+02  8.848920930E-01 
        17  1.649896870E-03  1.110991589E-01 -3.144821902E-03  8.739311389E+04  1.460155314E+02  3.329928746E+02  2.761316888E+02  2.423154230E+02  9.351128358E-01 
        18  3.605378217E-03  1.114680886E-01 -8.997268064E-04  7.585630969E+04  1.737290010E+02  3.264512801E+02  2.653882198E+02  2.836813707E+02  9.404946752E-01 
        19  5.548952344E-03  1.118349081E-01  1.356589372E-03  6.996151208E+04  2.087705390E+02  3.227466736E+02  2.594007952E+02  3.073121972E+02  8.473276054E-01 
        20  7.472030685E-03  1.121892539E-01  3.633809071E-03  7.268613106E+04  2.114010849E+02  3.245696464E+02  2.623414350E+02  2.975470079E+02  7.918856442E-01 
        21  9.366594022E-03  1.125505666E-01  5.932977735E-03  7.630381830E+04  2.082872969E+02  3.267960987E+02  2.659512017E+02  2.854489348E+02  7.604754614E-01 
        22  1.122147558E-02  1.129077905E-01  8.263617067E-03  7.867423811E+04  2.088136013E+02  3.281672076E+02  2.681862049E+02  2.772151597E+02  7.270355642E-01 
        23  1.303284284E-02  1.132507638E-01  1.062953057E-02  8.030011834E+04  2.113541184E+02  3.290499150E+02  2.696300985E+02  2.717245717E+02  6.941933162E-01 
        24  1.479928419E-02  1.136234762E-01  1.303021626E-02  8.153324301E+04  2.156713196E+02  3.297014496E+02  2.706988164E+02  2.679967841E+02  6.588061692E-01 
        25  1.649617427E-02  1.139938279E-01  1.547769530E-02  8.262131720E+04  2.205903947E+02  3.302555556E+02  2.716093786E+02  2.649028842E+02  6.227194280E-01 
        26  1.811807173E-02  1.143837002E-01  1.797032872E-02  8.339265381E+04  2.260651512E+02  3.306325388E+02  2.722294183E+02  2.629681854E+02  5.881020185E-01 
        27  1.968166241E-02  1.148013513E-01  2.049621310E-02  8.354251068E+04  2.330039070E+02  3.306913481E+02  2.723261807E+02  2.632295761E+02  5.538797863E-01 
        28  2.119101764E-02  1.152299366E-01  2.305322148E-02  8.304469970E+04  2.416345901E+02  3.304540831E+02  2.719354821E+02  2.657432482E+02  5.188933340E-01 
        29  2.266338778E-02  1.156643914E-01  2.563116057E-02  8.243022156E+04  2.503940588E+02  3.301507053E+02  2.714363971E+02  2.686803526E+02  4.849125317E-01 
        30  2.408077791E-02  1.161159634E-01  2.823658064E-02  8.190875574E+04  2.584911439E+02  3.299210706E+02  2.710588193E+02  2.713751104E+02  4.537480557E-01 
        31  2.544088325E-02  1.165921105E-01  3.086849856E-02  8.136969336E+04  2.665226636E+02  3.296486607E+02  2.706114826E+02  2.742584848E+02  4.239141336E-01 
        32  2.674433127E-02  1.170738851E-01  3.352942364E-02  8.078789868E+04  2.745105269E+02  3.293412728E+02  2.701070557E+02  2.772424512E+02  3.949001650E-01 
        33  2.797950643E-02  1.175445507E-01  3.622298897E-02  8.022685086E+04  2.823621808E+02  3.290533702E+02  2.696348959E+02  2.800272607E+02  3.659318299E-01 
        34  2.916313541E-02  1.180056499E-01  3.893937175E-02  7.991034474E+04  2.896084927E+02  3.288903022E+02  2.693679276E+02  2.819959804E+02  3.370100911E-01 
        35  3.031249539E-02  1.184785399E-01  4.167042727E-02  8.006239594E+04  2.953489897E+02  3.289600959E+02  2.694826066E+02  2.824198651E+02  3.100816130E-01 
        36  3.139929926E-02  1.189405785E-01  4.442941843E-02  8.037079846E+04  3.005961554E+02  3.291352791E+02  2.697697740E+02  2.822410973E+02  2.833420347E-01 
        37  3.242013936E-02  1.193808800E-01  4.721660669E-02  8.089888695E+04  3.056371378E+02  3.293244873E+02  2.700800216E+02  2.812801936E+02  2.543538327E-01 
        38  3.340677803E-02  1.198011670E-01  5.002067675E-02  8.209157635E+04  3.085176762E+02  3.299230676E+02  2.710626326E+02  2.781205138E+02  2.279692228E-01 
        39  3.430413654E-02  1.201853153E-01  5.285529857E-02  8.362626294E+04  3.102863970E+02  3.308238611E+02  2.725454168E+02  2.736325169E+02  2.021282613E-01 
        40  3.515433510E-02  1.205874318E-01  5.570324370E-02  8.549867578E+04  3.108050613E+02  3.318895855E+02  2.743045158E+02  2.680318565E+02  1.786049763E-01 
        41  3.592907297E-02  1.209644065E-01  5.857535950E-02  8.763064233E+04  3.099799633E+02  3.330490608E+02  2.762248378E+02  2.615000639E+02  1.588003752E-01 
        42  3.664355424E-02  1.213334730E-01  6.146049591E-02  8.990769714E+04  3.076718721E+02  3.342361522E+02  2.781975617E+02  2.543408947E+02  1.449968938E-01 
        43  3.727845098E-02  1.217084379E-01  6.437276718E-02  9.211187451E+04  3.043370943E+02  3.354092951E+02  2.801534414E+02  2.473377218E+02  1.380851869E-01 
        44  3.781448665E-02  1.220744111E-01  6.730672953E-02  9.397869751E+04  3.008485308E+02  3.364191828E+02  2.818424034E+02  2.414558096E+02  1.371611659E-01 
        45  3.826762164E-02  1.224563704E-01  7.025293559E-02  9.531284161E+04  2.981035810E+02  3.371319466E+02  2.830375948E+02  2.375491300E+02  1.404028130E-01 
        46  3.856443464E-02  1.228195695E-01  7.317567491E-02  9.609669141E+04  2.958046341E+02  3.376557922E+02  2.839179077E+02  2.349020615E+02  1.461503915E-01 
        47  3.882754171E-02  1.231963568E-01  7.616928387E-02  9.651077481E+04  2.937448286E+02  3.383162163E+02  2.850307963E+02  2.327057750E+02  1.527604259E-01 
        48  3.896508106E-02  1.235573809E-01  7.913505459E-02  9.664435547E+04  2.903041725E+02  3.392572479E+02  2.866299477E+02  2.274971352E+02  1.579006463E-01 
        49  3.903512947E-02  1.239238609E-01  8.213137167E-02  9.661417871E+04  2.820483010E+02  3.410621934E+02  2.897116735E+02  2.136680095E+02  1.663005226E-01 
        50  3.900153017E-02  1.243001337E-01  8.510504302E-02  9.645319626E+04  2.677319930E+02  3.440393308E+02  2.948058349E+02  1.877598118E+02  1.704585071E-01 
        51  3.889299026E-02  1.246700891E-01  8.806950082E-02  9.632060626E+04  2.518789008E+02  3.475000184E+02  3.007701735E+02  1.471751466E+02  1.491555772E-01 
        52  3.870303970E-02  1.250405990E-01  9.105247242E-02  9.640526880E+04  2.427082772E+02  3.503338408E+02  3.056676078E+02  1.090156437E+02  6.641348515E-02 
        53  3.847530202E-02  1.253810613E-01  9.402032493E-02  9.677665491E+04  2.405962886E+02  3.519894835E+02  3.085575435E+02  7.593045068E+01 -1.988305210E-01 
        54  3.809583015E-02  1.257752167E-01  9.695318516E-02  9.857327734E+04  2.410426025E+02  3.530405388E+02  3.103900452E+02  5.070176172E+01 -8.190273121E-01 
        55  3.767199372E-02  1.261489404E-01  9.992435767E-02  1.009976753E+05  2.410144696E+02  3.534635096E+02  3.111257296E+02  4.366751838E+01 -8.806508388E-01 
        56  3.723780727E-02  1.265196365E-01  1.028569506E-01  1.038320807E+05  2.378088692E+02  3.532372372E+02  3.107285947E+02  5.871405171E+01 -3.034698169E-01 
        57  3.672955052E-02  1.269046997E-01  1.057947981E-01  1.059441949E+05  2.381871474E+02  3.519133010E+02  3.084102135E+02  9.345528293E+01  1.348185033E-02 
        58  3.615520807E-02  1.273091289E-01  1.087154776E-01  1.070739937E+05  2.444523191E+02  3.493397827E+02  3.039217844E+02  1.350457444E+02  1.369164945E-01 
        59  3.556812424E-02  1.277144368E-01  1.116309472E-01  1.076098394E+05  2.543537984E+02  3.464210060E+02  2.988599756E+02  1.698247433E+02  1.871142661E-01 
        60  3.495651588E-02  1.281329458E-01  1.145394580E-01  1.079123591E+05  2.630228376E+02  3.443276858E+02  2.952518139E+02  1.895837035E+02  1.981705069E-01 
        61  3.433795015E-02  1.285471243E-01  1.174457346E-01  1.080124475E+05  2.677328944E+02  3.433377914E+02  2.935532842E+02  1.972602406E+02  1.965259355E-01 
        62  3.376061330E-02  1.289460490E-01  1.203607660E-01  1.080758452E+05  2.699709740E+02  3.430649726E+02  2.930864608E+02  1.994987352E+02  1.921296327E-01 
        63  3.331803132E-02  1.293309423E-01  1.232882868E-01  1.080873630E+05  2.715722286E+02  3.430507247E+02  2.930620679E+02  2.004748871E+02  1.876020107E-01 
        64  3.310586596E-02  1.296649637E-01  1.262581306E-01  1.079453507E+05  2.727690957E+02  3.430384848E+02  2.930411701E+02  2.010044680E+02  1.840544506E-01 
        65  3.306639982E-02  1.299493947E-01  1.292495641E-01  1.077472553E+05  2.737051409E+02  3.430037282E+02  2.929817788E+02  2.015076246E+02  1.820113391E-01 
        66  3.322486525E-02  1.302097713E-01  1.322380794E-01  1.075782637E+05  2.746461621E+02  3.429559184E+02  2.929000834E+02  2.023385043E+02  1.812924073E-01 
        67  3.356462385E-02  1.304573038E-01  1.352130229E-01  1.074078477E+05  2.756308190E+02  3.428920724E+02  2.927910628E+02  2.034994109E+02  1.818253917E-01 
        68  3.400410102E-02  1.306751199E-01  1.381765647E-01  1.071809786E+05  2.767110758E+02  3.427883492E+02  2.926139588E+02  2.049318714E+02  1.826459488E-01 
        69  3.451963359E-02  1.308741206E-01  1.411278790E-01  1.069204474E+05  2.777994454E+02  3.426764336E+02  2.924228771E+02  2.064427791E+02  1.837542874E-01 
        70  3.508991352E-02  1.310576265E-01  1.440660380E-01  1.066398286E+05  2.788522072E+02  3.425632520E+02  2.922297299E+02  2.080978973E+02  1.856127817E-01 
        71  3.570211579E-02  1.312503676E-01  1.470000000E-01  1.063202246E+05  2.800912247E+02  3.424231110E+02  2.919914665E+02  2.100206432E+02  1.870457698E-01 
        72 -2.843361623E-02  1.708417341E-01 -4.258217492E-02  8.202894775E+04  1.837216859E+02  3.299765110E+02  2.711495504E+02  3.442218485E+02  1.007660173E+00 
        73 -2.838826984E-02  1.709653765E-01 -3.916427879E-02  8.199986707E+04  1.843181951E+02  3.299421105E+02  2.710931103E+02  3.447188473E+02  1.006524301E+00 
        74 -2.835908450E-02  1.711140563E-01 -3.574649433E-02  8.231894257E+04  1.838335066E+02  3.301508379E+02  2.714362583E+02  3.438133283E+02  1.006550983E+00 
        75 -2.838361088E-02  1.712589164E-01 -3.232950605E-02  8.300206836E+04  1.829001813E+02  3.305286331E+02  2.720578604E+02  3.422629681E+02  1.006973512E+00 
        76 -2.841360827E-02  1.714319125E-01 -2.891476756E-02  8.384047070E+04  1.813119340E+02  3.310208731E+02  2.728687568E+02  3.400781293E+02  1.008603467E+00 
        77 -2.833774301E-02  1.716334782E-01 -2.549995819E-02  8.438907104E+04  1.803437743E+02  3.313088713E+02  2.733436404E+02  3.389031994E+02  1.009902575E+00 
        78 -2.791452343E-02  1.719215161E-01 -2.212016887E-02  8.454663037E+04  1.797454967E+02  3.313940067E+02  2.734841747E+02  3.387988949E+02  1.011821516E+00 
        79 -2.700703325E-02  1.722886754E-01 -1.884820631E-02  8.425002148E+04  1.797837291E+02  3.312310324E+02  2.732153196E+02  3.395844288E+02  1.013104402E+00 
        80 -2.544395246E-02  1.727209334E-01 -1.584518523E-02  8.311196802E+04  1.814289440E+02  3.305899959E+02  2.721590502E+02  3.431902976E+02  1.013809864E+00 
        81 -2.351536464E-02  1.732363399E-01 -1.306823492E-02  8.116182695E+04  1.851533284E+02  3.294627194E+02  2.703064620E+02  3.492059523E+02  1.011970571E+00 
        82 -2.134527601E-02  1.737374909E-01 -1.047435973E-02  7.850305943E+04  1.914099978E+02  3.278672298E+02  2.676951778E+02  3.566274614E+02  1.004675093E+00 
        83 -1.897326710E-02  1.742189522E-01 -8.035177519E-03  7.552703220E+04  1.991308038E+02  3.260902486E+02  2.648017091E+02  3.652054752E+02  9.953432693E-01 
        84 -1.652827274E-02  1.746780172E-01 -5.688541800E-03  7.311233118E+04  2.068772042E+02  3.245592737E+02  2.623208737E+02  3.725288792E+02  9.840828059E-01 
        85 -1.397929867E-02  1.751251779E-01 -3.446989688E-03  7.246080701E+04  2.103287468E+02  3.241505656E+02  2.616605682E+02  3.745993152E+02  9.767149556E-01 
        86 -1.139011487E-02  1.755573757E-01 -1.256774906E-03  7.410187805E+04  2.091053832E+02  3.252007008E+02  2.633603578E+02  3.704429293E+02  9.722469468E-01 
        87 -8.734274343E-03  1.759085237E-01  8.667805443E-04  7.942236346E+04  2.024177527E+02  3.284880745E+02  2.687195692E+02  3.552196298E+02  9.656128082E-01 
        88 -6.073383534E-03  1.762548475E-01  2.984781313E-03  8.882969873E+04  1.918196398E+02  3.335668814E+02  2.770903902E+02  3.308326576E+02  9.605412362E-01 
        89 -3.359730182E-03  1.765819110E-01  5.053045394E-03  9.829590216E+04  1.754358841E+02  3.384630039E+02  2.852787913E+02  3.045128958E+02  9.816582990E-01 
        90 -6.741955509E-04  1.768270807E-01  7.130208361E-03  9.828942231E+04  1.675093776E+02  3.382909177E+02  2.849883316E+02  3.085913864E+02  1.015286093E+00 
        91  2.027043660E-03  1.770783858E-01  9.208570588E-03  7.938658842E+04  1.911872803E+02  3.281487651E+02  2.681587023E+02  3.549409572E+02  1.002931483E+00 
        92  4.731686997E-03  1.772422585E-01  1.127155269E-02  7.224617847E+04  2.140116723E+02  3.241834794E+02  2.617150741E+02  3.769220167E+02  9.684675956E-01 
        93  7.454465044E-03  1.773874983E-01  1.334309669E-02  7.295012419E+04  2.097527842E+02  3.244216861E+02  2.621001315E+02  3.741320485E+02  9.770005203E-01 
        94  1.015989937E-02  1.775222933E-01  1.545596277E-02  7.042284146E+04  2.175271632E+02  3.227568861E+02  2.594207236E+02  3.815340110E+02  9.662047810E-01 
        95  1.284858280E-02  1.775661421E-01  1.756817794E-02  6.702670688E+04  2.287581395E+02  3.205518711E+02  2.558883271E+02  3.926015680E+02  9.522678745E-01 
        96  1.551966693E-02  1.776138061E-01  1.970369132E-02  6.414481036E+04  2.377866340E+02  3.186608801E+02  2.528775883E+02  4.012676182E+02  9.412661176E-01 
        97  1.817410325E-02  1.776258069E-01  2.186017323E-02  6.176923242E+04  2.454230406E+02  3.171137590E+02  2.504269929E+02  4.080498314E+02  9.311730601E-01 
        98  2.080993586E-02  1.775631240E-01  2.403936301E-02  6.013247839E+04  2.523523893E+02  3.159740062E+02  2.486280251E+02  4.128269615E+02  9.190459121E-01 
        99  2.341570779E-02  1.774969016E-01  2.625394818E-02  5.981482764E+04  2.570640979E+02  3.157176123E+02  2.482250314E+02  4.139936533E+02  9.059426002E-01 
       100  2.600295182E-02  1.773818036E-01  2.848806157E-02  6.175829517E+04  2.578779259E+02  3.170922241E+02  2.504076757E+02  4.088574476E+02  8.915691897E-01 
       101  2.856627515E-02  1.771883875E-01  3.074502562E-02  6.733161108E+04  2.528789606E+02  3.209623060E+02  2.566009436E+02  3.930715075E+02  8.742413893E-01 
       102  3.110662233E-02  1.769811535E-01  3.302644514E-02  7.540009229E+04  2.452831688E+02  3.262575054E+02  2.651365957E+02  3.700634365E+02  8.523140140E-01 
       103  3.362247542E-02  1.767159818E-01  3.532849163E-02  8.147430286E+04  2.432121577E+02  3.298884525E+02  2.710232420E+02  3.534118891E+02  8.266480509E-01 
       104  3.610895472E-02  1.763647845E-01  3.765120331E-02  8.222150159E+04  2.494498842E+02  3.300567832E+02  2.712874331E+02  3.527405634E+02  8.044483429E-01 
       105  3.856497337E-02  1.759966372E-01  4.000321012E-02  7.975565189E+04  2.579472275E+02  3.285190839E+02  2.687639347E+02  3.604682320E+02  7.901027850E-01 
       106  4.103059304E-02  1.755360248E-01  4.234569910E-02  7.809644391E+04  2.634042570E+02  3.277719560E+02  2.675390038E+02  3.643399617E+02  7.789070198E-01 
       107  4.340106546E-02  1.750377176E-01  4.474435622E-02  7.944542586E+04  2.657062278E+02  3.286313195E+02  2.689469700E+02  3.605623388E+02  7.640217848E-01 
       108  4.575540032E-02  1.745445103E-01  4.717695363E-02  8.395713232E+04  2.638989420E+02  3.311745615E+02  2.731332235E+02  3.489173007E+02  7.487316886E-01 
       109  4.807037784E-02  1.739953488E-01  4.963532790E-02  9.013965503E+04  2.598383236E+02  3.345077171E+02  2.786582308E+02  3.324126539E+02  7.334557455E-01 
       110  5.034733117E-02  1.734133857E-01  5.212084081E-02  9.526619775E+04  2.579801044E+02  3.371710434E+02  2.831068268E+02  3.187063618E+02  7.167583406E-01 
       111  5.258765486E-02  1.728405975E-01  5.464144749E-02  9.843967432E+04  2.586052647E+02  3.388382874E+02  2.859108372E+02  3.100956516E+02  7.007050328E-01 
       112  5.479076840E-02  1.722430532E-01  5.718902978E-02  1.011047578E+05  2.589343491E+02  3.401900997E+02  2.881965313E+02  3.028091583E+02  6.882542092E-01 
       113  5.694737683E-02  1.716020731E-01  5.976586917E-02  1.041475123E+05  2.585020390E+02  3.415619743E+02  2.905250444E+02  2.940314817E+02  6.767799677E-01 
       114  5.911848447E-02  1.709340834E-01  6.233872565E-02  1.072987927E+05  2.575050965E+02  3.429876381E+02  2.929552813E+02  2.856556284E+02  6.683188615E-01 
       115  6.119351897E-02  1.703313828E-01  6.496775561E-02  1.101780178E+05  2.564036059E+02  3.443245831E+02  2.952435985E+02  2.781865544E+02  6.625282932E-01 
       116  6.319798910E-02  1.696485115E-01  6.765543605E-02  1.131039396E+05  2.546772556E+02  3.456839643E+02  2.975792284E+02  2.706229992E+02  6.593322847E-01 
       117  6.520189851E-02  1.689621155E-01  7.034628384E-02  1.158212339E+05  2.532093077E+02  3.468393660E+02  2.995713282E+02  2.638328953E+02  6.568141673E-01 
       118  6.717992039E-02  1.682884043E-01  7.305807409E-02  1.172696592E+05  2.527116899E+02  3.474174700E+02  3.005706491E+02  2.600074406E+02  6.544490047E-01 
       119  6.910755662E-02  1.675987334E-01  7.579818779E-02  1.188958860E+05  2.509266798E+02  3.480815675E+02  3.017207627E+02  2.559516528E+02  6.574301189E-01 
       120  7.101404689E-02  1.668389198E-01  7.852135391E-02  1.198554995E+05  2.483003317E+02  3.485175834E+02  3.024771578E+02  2.529577107E+02  6.649088073E-01 
