nodenumber     x-coordinate     y-coordinate     z-coordinate         pressure velocity-magnitude      sound-speed      temperature rel-velocity-magnitude relative-velocity-angle 
         1 -2.216901913E-02  1.039879580E-01 -4.300600202E-02  8.757509409E+04  1.537744037E+02  3.330640711E+02  2.762475810E+02  2.356952506E+02  8.600858776E-01 
         2 -2.197401757E-02  1.042260031E-01 -4.002397295E-02  8.749082669E+04  1.543728285E+02  3.330172082E+02  2.761698910E+02  2.363710996E+02  8.593937380E-01 
         3 -2.150271627E-02  1.045375264E-01 -3.708169353E-02  8.738900659E+04  1.549901975E+02  3.329620154E+02  2.760783114E+02  2.369768864E+02  8.584142369E-01 
         4 -2.072290556E-02  1.049359494E-01 -3.421635317E-02  8.724758923E+04  1.557443781E+02  3.328869624E+02  2.759538770E+02  2.377293956E+02  8.573073726E-01 
         5 -1.964621854E-02  1.053757771E-01 -3.145501365E-02  8.712926831E+04  1.564300246E+02  3.328266420E+02  2.758539023E+02  2.384617925E+02  8.565586414E-01 
         6 -1.833909717E-02  1.058829391E-01 -2.880182754E-02  8.701083618E+04  1.571471410E+02  3.327617979E+02  2.757464652E+02  2.393748035E+02  8.563286588E-01 
         7 -1.686396899E-02  1.064019756E-01 -2.624136390E-02  8.684716064E+04  1.579493394E+02  3.326744785E+02  2.756017590E+02  2.403731503E+02  8.559338469E-01 
         8 -1.524276490E-02  1.069101094E-01 -2.376908005E-02  8.664171057E+04  1.589712749E+02  3.325581594E+02  2.754091315E+02  2.415095925E+02  8.549113367E-01 
         9 -1.353040875E-02  1.074492491E-01 -2.136449246E-02  8.638276514E+04  1.601583309E+02  3.324239831E+02  2.751870160E+02  2.428362281E+02  8.536905227E-01 
        10 -1.175719847E-02  1.079385502E-01 -1.899452623E-02  8.611434851E+04  1.613735286E+02  3.323014078E+02  2.749840388E+02  2.438937271E+02  8.513576686E-01 
        11 -9.920451205E-03  1.084473482E-01 -1.667649769E-02  8.596378824E+04  1.626436840E+02  3.322242905E+02  2.748563464E+02  2.447236114E+02  8.479123483E-01 
        12 -8.053093039E-03  1.089314126E-01 -1.437870322E-02  8.611679944E+04  1.636761975E+02  3.322699428E+02  2.749318377E+02  2.448396306E+02  8.433129680E-01 
        13 -6.139911673E-03  1.093816015E-01 -1.211111235E-02  8.665148511E+04  1.630552669E+02  3.325487652E+02  2.753934584E+02  2.435083618E+02  8.426770773E-01 
        14 -4.213714023E-03  1.098625599E-01 -9.853315987E-03  8.754541064E+04  1.606363420E+02  3.330435925E+02  2.762137203E+02  2.406523523E+02  8.464780636E-01 
        15 -2.267252226E-03  1.102821410E-01 -7.616721013E-03  8.856278613E+04  1.563689623E+02  3.335961552E+02  2.771310644E+02  2.371277514E+02  8.585009612E-01 
        16 -3.058463972E-04  1.106716081E-01 -5.380345181E-03  8.944092676E+04  1.498289137E+02  3.340356092E+02  2.778619137E+02  2.339064140E+02  8.846288566E-01 
        17  1.649896870E-03  1.110991589E-01 -3.144821902E-03  8.722517578E+04  1.456196533E+02  3.330006833E+02  2.761454940E+02  2.421273897E+02  9.373615971E-01 
        18  3.605378217E-03  1.114680886E-01 -8.997268064E-04  7.553563049E+04  1.753597672E+02  3.262362413E+02  2.650385642E+02  2.858274221E+02  9.397411402E-01 
        19  5.548952344E-03  1.118349081E-01  1.356589372E-03  6.978747345E+04  2.104429684E+02  3.225706420E+02  2.591184776E+02  3.090893860E+02  8.457580418E-01 
        20  7.472030685E-03  1.121892539E-01  3.633809071E-03  7.293366376E+04  2.128012290E+02  3.245781312E+02  2.623592458E+02  2.986167898E+02  7.891566786E-01 
        21  9.366594022E-03  1.125505666E-01  5.932977735E-03  7.660245190E+04  2.077751365E+02  3.270043473E+02  2.662910542E+02  2.843483865E+02  7.597270696E-01 
        22  1.122147558E-02  1.129077905E-01  8.263617067E-03  7.893939854E+04  2.079921099E+02  3.283674254E+02  2.685131698E+02  2.755705012E+02  7.254876490E-01 
        23  1.303284284E-02  1.132507638E-01  1.062953057E-02  8.048229292E+04  2.111670495E+02  3.292044214E+02  2.698832902E+02  2.718431425E+02  6.957333898E-01 
        24  1.479928419E-02  1.136234762E-01  1.303021626E-02  8.163750012E+04  2.156814666E+02  3.298418419E+02  2.709294604E+02  2.695369303E+02  6.646725528E-01 
        25  1.649617427E-02  1.139938279E-01  1.547769530E-02  8.264042542E+04  2.207359030E+02  3.303692307E+02  2.717964499E+02  2.666530926E+02  6.286537317E-01 
        26  1.811807173E-02  1.143837002E-01  1.797032872E-02  8.333297839E+04  2.263754568E+02  3.307195358E+02  2.723728976E+02  2.641190701E+02  5.909077497E-01 
        27  1.968166241E-02  1.148013513E-01  2.049621310E-02  8.343018359E+04  2.332813022E+02  3.307678218E+02  2.724523211E+02  2.636152422E+02  5.539166112E-01 
        28  2.119101764E-02  1.152299366E-01  2.305322148E-02  8.293595363E+04  2.421616214E+02  3.304342401E+02  2.719031275E+02  2.660778542E+02  5.173648054E-01 
        29  2.266338778E-02  1.156643914E-01  2.563116057E-02  8.238205609E+04  2.507727833E+02  3.300621319E+02  2.712910254E+02  2.688391746E+02  4.835506349E-01 
        30  2.408077791E-02  1.161159634E-01  2.823658064E-02  8.189542133E+04  2.584975774E+02  3.297850516E+02  2.708355837E+02  2.711510708E+02  4.528875058E-01 
        31  2.544088325E-02  1.165921105E-01  3.086849856E-02  8.135319690E+04  2.664354327E+02  3.294280491E+02  2.702497518E+02  2.739266286E+02  4.231064674E-01 
        32  2.674433127E-02  1.170738851E-01  3.352942364E-02  8.076845154E+04  2.745250576E+02  3.290457969E+02  2.696229284E+02  2.770851128E+02  3.941753637E-01 
        33  2.797950643E-02  1.175445507E-01  3.622298897E-02  8.022592953E+04  2.824443638E+02  3.287269733E+02  2.691005498E+02  2.799915234E+02  3.652583794E-01 
        34  2.916313541E-02  1.180056499E-01  3.893937175E-02  7.992279721E+04  2.897023407E+02  3.285680136E+02  2.688404334E+02  2.818542970E+02  3.358657171E-01 
        35  3.031249539E-02  1.184785399E-01  4.167042727E-02  8.005591977E+04  2.954140193E+02  3.287024262E+02  2.690603777E+02  2.821625357E+02  3.087355256E-01 
        36  3.139929926E-02  1.189405785E-01  4.442941843E-02  8.034367480E+04  3.006355414E+02  3.289659981E+02  2.694919386E+02  2.820892458E+02  2.825557092E-01 
        37  3.242013936E-02  1.193808800E-01  4.721660669E-02  8.082854823E+04  3.057064022E+02  3.293100591E+02  2.700561064E+02  2.812301327E+02  2.537648275E-01 
        38  3.340677803E-02  1.198011670E-01  5.002067675E-02  8.199425244E+04  3.086922897E+02  3.299825714E+02  2.711605000E+02  2.781261063E+02  2.270931870E-01 
        39  3.430413654E-02  1.201853153E-01  5.285529857E-02  8.357146484E+04  3.104215822E+02  3.308701859E+02  2.726216469E+02  2.736218185E+02  2.013582597E-01 
        40  3.515433510E-02  1.205874318E-01  5.570324370E-02  8.551967090E+04  3.108133984E+02  3.319365025E+02  2.743822498E+02  2.679305611E+02  1.781684440E-01 
        41  3.592907297E-02  1.209644065E-01  5.857535950E-02  8.777548779E+04  3.096093292E+02  3.331576843E+02  2.764054203E+02  2.610894527E+02  1.592459413E-01 
        42  3.664355424E-02  1.213334730E-01  6.146049591E-02  9.019913379E+04  3.069272180E+02  3.344008656E+02  2.784720922E+02  2.535807791E+02  1.461839653E-01 
        43  3.727845098E-02  1.217084379E-01  6.437276718E-02  9.252309131E+04  3.033623219E+02  3.355706253E+02  2.804231319E+02  2.463468904E+02  1.397415036E-01 
        44  3.781448665E-02  1.220744111E-01  6.730672953E-02  9.445118188E+04  2.997052755E+02  3.365755005E+02  2.821045713E+02  2.404383945E+02  1.398080597E-01 
        45  3.826762164E-02  1.224563704E-01  7.025293559E-02  9.580950201E+04  2.967218945E+02  3.373323529E+02  2.833741758E+02  2.364471457E+02  1.441992245E-01 
        46  3.856443464E-02  1.228195695E-01  7.317567491E-02  9.659360547E+04  2.948971024E+02  3.378265686E+02  2.842050476E+02  2.344085770E+02  1.496879607E-01 
        47  3.882754171E-02  1.231963568E-01  7.616928387E-02  9.692756406E+04  2.933579644E+02  3.384812912E+02  2.853089758E+02  2.326154167E+02  1.549194663E-01 
        48  3.896508106E-02  1.235573809E-01  7.913505459E-02  9.692258008E+04  2.901798553E+02  3.394030838E+02  2.868746567E+02  2.272017746E+02  1.573403254E-01 
        49  3.903512947E-02  1.239238609E-01  8.213137167E-02  9.680800293E+04  2.820192692E+02  3.410914373E+02  2.897573476E+02  2.126284230E+02  1.616537010E-01 
        50  3.900153017E-02  1.243001337E-01  8.510504302E-02  9.670810449E+04  2.666816245E+02  3.440701718E+02  2.948573809E+02  1.849422333E+02  1.676445355E-01 
        51  3.889299026E-02  1.246700891E-01  8.806950082E-02  9.678192639E+04  2.473419187E+02  3.481413274E+02  3.018790789E+02  1.388780899E+02  1.558132010E-01 
        52  3.870303970E-02  1.250405990E-01  9.105247242E-02  9.672789771E+04  2.368293638E+02  3.513968058E+02  3.075186691E+02  9.518216670E+01  6.480492181E-02 
        53  3.847530202E-02  1.253810613E-01  9.402032493E-02  9.693374448E+04  2.337554446E+02  3.527858317E+02  3.099488407E+02  5.965295338E+01 -1.594781080E-01 
        54  3.809583015E-02  1.257752167E-01  9.695318516E-02  9.783628613E+04  2.316366615E+02  3.534170609E+02  3.110489120E+02  3.874482322E+01 -1.288859814E+00 
        55  3.767199372E-02  1.261489404E-01  9.992435767E-02  9.942340430E+04  2.406947646E+02  3.529093304E+02  3.101510606E+02  4.003503752E+01 -1.582436066E+00 
        56  3.723780727E-02  1.265196365E-01  1.028569506E-01  1.016819007E+05  2.512618750E+02  3.519590884E+02  3.084829887E+02  5.624482575E+01 -1.111106025E+00 
        57  3.672955052E-02  1.269046997E-01  1.057947981E-01  1.037021957E+05  2.490752249E+02  3.506352739E+02  3.061680293E+02  9.296571183E+01 -2.720152274E-01 
        58  3.615520807E-02  1.273091289E-01  1.087154776E-01  1.057820256E+05  2.425021586E+02  3.482026157E+02  3.019400749E+02  1.437772732E+02  1.803601068E-01 
        59  3.556812424E-02  1.277144368E-01  1.116309472E-01  1.074648078E+05  2.507962306E+02  3.451284597E+02  2.966294372E+02  1.783666892E+02  2.410537391E-01 
        60  3.495651588E-02  1.281329458E-01  1.145394580E-01  1.080683457E+05  2.587210994E+02  3.436868663E+02  2.941513290E+02  1.877182841E+02  2.188111846E-01 
        61  3.433795015E-02  1.285471243E-01  1.174457346E-01  1.081349237E+05  2.636480498E+02  3.433099084E+02  2.935051785E+02  1.901519186E+02  1.970111371E-01 
        62  3.376061330E-02  1.289460490E-01  1.203607660E-01  1.081011083E+05  2.672908375E+02  3.432195778E+02  2.933507090E+02  1.936709869E+02  1.880599402E-01 
        63  3.331803132E-02  1.293309423E-01  1.232882868E-01  1.080459906E+05  2.699569679E+02  3.431674063E+02  2.932615126E+02  1.971027680E+02  1.855472047E-01 
        64  3.310586596E-02  1.296649637E-01  1.262581306E-01  1.079685516E+05  2.715751200E+02  3.431416495E+02  2.932174635E+02  1.992488314E+02  1.851457647E-01 
        65  3.306639982E-02  1.299493947E-01  1.292495641E-01  1.078852746E+05  2.726570688E+02  3.431473877E+02  2.932272831E+02  2.005902036E+02  1.851955688E-01 
        66  3.322486525E-02  1.302097713E-01  1.322380794E-01  1.077723844E+05  2.737901258E+02  3.431031417E+02  2.931516903E+02  2.017963852E+02  1.846285877E-01 
        67  3.356462385E-02  1.304573038E-01  1.352130229E-01  1.076084702E+05  2.750970450E+02  3.430147896E+02  2.930007586E+02  2.033189469E+02  1.844645112E-01 
        68  3.400410102E-02  1.306751199E-01  1.381765647E-01  1.073536147E+05  2.762654111E+02  3.428965144E+02  2.927987032E+02  2.047846975E+02  1.848473509E-01 
        69  3.451963359E-02  1.308741206E-01  1.411278790E-01  1.070134723E+05  2.774294403E+02  3.427419095E+02  2.925347085E+02  2.063630042E+02  1.857178903E-01 
        70  3.508991352E-02  1.310576265E-01  1.440660380E-01  1.066570168E+05  2.786297469E+02  3.425727458E+02  2.922460093E+02  2.079860845E+02  1.865611030E-01 
        71  3.570211579E-02  1.312503676E-01  1.470000000E-01  1.063158008E+05  2.799979210E+02  3.424035339E+02  2.919574165E+02  2.100465755E+02  1.876987256E-01 
        72 -2.843361623E-02  1.708417341E-01 -4.258217492E-02  8.204801880E+04  1.837196054E+02  3.299854412E+02  2.711642666E+02  3.443120775E+02  1.007851783E+00 
        73 -2.838826984E-02  1.709653765E-01 -3.916427879E-02  8.206850446E+04  1.842185059E+02  3.299769490E+02  2.711503727E+02  3.448690372E+02  1.007192102E+00 
        74 -2.835908450E-02  1.711140563E-01 -3.574649433E-02  8.240390698E+04  1.837718405E+02  3.301765146E+02  2.714784589E+02  3.439794846E+02  1.007162579E+00 
        75 -2.838361088E-02  1.712589164E-01 -3.232950605E-02  8.292437036E+04  1.827456346E+02  3.305142517E+02  2.720343866E+02  3.420201130E+02  1.007278670E+00 
        76 -2.841360827E-02  1.714319125E-01 -2.891476756E-02  8.355436377E+04  1.821347833E+02  3.308144131E+02  2.725288343E+02  3.412776508E+02  1.008124836E+00 
        77 -2.833774301E-02  1.716334782E-01 -2.549995819E-02  8.408040244E+04  1.814251603E+02  3.310998280E+02  2.729991902E+02  3.406177304E+02  1.009400683E+00 
        78 -2.791452343E-02  1.719215161E-01 -2.212016887E-02  8.445550293E+04  1.801591797E+02  3.313086758E+02  2.733437157E+02  3.389313259E+02  1.010882050E+00 
        79 -2.700703325E-02  1.722886754E-01 -1.884820631E-02  8.433088477E+04  1.795997210E+02  3.312371674E+02  2.732258520E+02  3.398541136E+02  1.014492996E+00 
        80 -2.544395246E-02  1.727209334E-01 -1.584518523E-02  8.326646259E+04  1.809279395E+02  3.306810160E+02  2.723094199E+02  3.428722274E+02  1.015350236E+00 
        81 -2.351536464E-02  1.732363399E-01 -1.306823492E-02  8.128929131E+04  1.849549963E+02  3.295276616E+02  2.704135340E+02  3.485673715E+02  1.011812672E+00 
        82 -2.134527601E-02  1.737374909E-01 -1.047435973E-02  7.865916962E+04  1.915186789E+02  3.279636669E+02  2.678527344E+02  3.568656775E+02  1.004956954E+00 
        83 -1.897326710E-02  1.742189522E-01 -8.035177519E-03  7.559875339E+04  1.991252390E+02  3.261271414E+02  2.648617730E+02  3.647613870E+02  9.944497324E-01 
        84 -1.652827274E-02  1.746780172E-01 -5.688541800E-03  7.322672192E+04  2.064880686E+02  3.246824288E+02  2.625195827E+02  3.726540504E+02  9.856109554E-01 
        85 -1.397929867E-02  1.751251779E-01 -3.446989688E-03  7.263134424E+04  2.098235288E+02  3.243007522E+02  2.619025927E+02  3.741507373E+02  9.772492219E-01 
        86 -1.139011487E-02  1.755573757E-01 -1.256774906E-03  7.392611401E+04  2.101198657E+02  3.250329995E+02  2.630897026E+02  3.712265601E+02  9.702678826E-01 
        87 -8.734274343E-03  1.759085237E-01  8.667805443E-04  7.908986346E+04  2.031578870E+02  3.282472847E+02  2.683251324E+02  3.572819874E+02  9.669348793E-01 
        88 -6.073383534E-03  1.762548475E-01  2.984781313E-03  8.859947040E+04  1.907229097E+02  3.335397255E+02  2.770455768E+02  3.300238109E+02  9.629284204E-01 
        89 -3.359730182E-03  1.765819110E-01  5.053045394E-03  9.821038025E+04  1.762227468E+02  3.383042099E+02  2.850108409E+02  3.032202084E+02  9.776147986E-01 
        90 -6.741955509E-04  1.768270807E-01  7.130208361E-03  9.754624940E+04  1.626201367E+02  3.382937461E+02  2.849941106E+02  3.106748508E+02  1.033916900E+00 
        91  2.027043660E-03  1.770783858E-01  9.208570588E-03  7.918254866E+04  1.919210724E+02  3.280295229E+02  2.679638419E+02  3.542633697E+02  9.995924450E-01 
        92  4.731686997E-03  1.772422585E-01  1.127155269E-02  7.296724451E+04  2.133680336E+02  3.245914606E+02  2.623738350E+02  3.782330287E+02  9.734277651E-01 
        93  7.454465044E-03  1.773874983E-01  1.334309669E-02  7.341534363E+04  2.113880034E+02  3.245111100E+02  2.622433867E+02  3.763202659E+02  9.758112491E-01 
        94  1.015989937E-02  1.775222933E-01  1.545596277E-02  7.070486377E+04  2.177994669E+02  3.229265044E+02  2.596921581E+02  3.817167739E+02  9.656749091E-01 
        95  1.284858280E-02  1.775661421E-01  1.756817794E-02  6.717652890E+04  2.275014719E+02  3.207822450E+02  2.562563070E+02  3.910533063E+02  9.530470897E-01 
        96  1.551966693E-02  1.776138061E-01  1.970369132E-02  6.418074915E+04  2.364680188E+02  3.186875503E+02  2.529221563E+02  4.004059916E+02  9.437833745E-01 
        97  1.817410325E-02  1.776258069E-01  2.186017323E-02  6.175021448E+04  2.438639541E+02  3.170692101E+02  2.503576593E+02  4.068442235E+02  9.338384150E-01 
        98  2.080993586E-02  1.775631240E-01  2.403936301E-02  6.008613953E+04  2.513706288E+02  3.158960714E+02  2.485080595E+02  4.113610992E+02  9.194636680E-01 
        99  2.341570779E-02  1.774969016E-01  2.625394818E-02  5.966030347E+04  2.574705992E+02  3.155567608E+02  2.479752989E+02  4.139332542E+02  9.049944039E-01 
       100  2.600295182E-02  1.773818036E-01  2.848806157E-02  6.139568677E+04  2.592793951E+02  3.169039412E+02  2.501095181E+02  4.093319407E+02  8.884651028E-01 
       101  2.856627515E-02  1.771883875E-01  3.074502562E-02  6.674053027E+04  2.554558859E+02  3.205868244E+02  2.559970808E+02  3.949586658E+02  8.701275103E-01 
       102  3.110662233E-02  1.769811535E-01  3.302644514E-02  7.501504712E+04  2.474748421E+02  3.259074240E+02  2.645718002E+02  3.720111456E+02  8.495027330E-01 
       103  3.362247542E-02  1.767159818E-01  3.532849163E-02  8.174103418E+04  2.433530188E+02  3.299905787E+02  2.711949043E+02  3.535147333E+02  8.267973997E-01 
       104  3.610895472E-02  1.763647845E-01  3.765120331E-02  8.294806104E+04  2.476135988E+02  3.306702538E+02  2.722971749E+02  3.510194621E+02  8.075974891E-01 
       105  3.856497337E-02  1.759966372E-01  4.000321012E-02  8.034024823E+04  2.563392153E+02  3.292477160E+02  2.699583887E+02  3.583080670E+02  7.916211565E-01 
       106  4.103059304E-02  1.755360248E-01  4.234569910E-02  7.816890053E+04  2.633912180E+02  3.281909374E+02  2.682240304E+02  3.635610666E+02  7.775832784E-01 
       107  4.340106546E-02  1.750377176E-01  4.474435622E-02  7.906925058E+04  2.667520120E+02  3.287019755E+02  2.690619639E+02  3.614404125E+02  7.622500083E-01 
       108  4.575540032E-02  1.745445103E-01  4.717695363E-02  8.318635999E+04  2.657509959E+02  3.309039998E+02  2.726857896E+02  3.505420833E+02  7.454668153E-01 
       109  4.807037784E-02  1.739953488E-01  4.963532790E-02  8.922732349E+04  2.607599106E+02  3.342040339E+02  2.781538715E+02  3.338427162E+02  7.327820640E-01 
       110  5.034733117E-02  1.734133857E-01  5.212084081E-02  9.483665625E+04  2.573483238E+02  3.371253567E+02  2.830316563E+02  3.185662308E+02  7.189534195E-01 
       111  5.258765486E-02  1.728405975E-01  5.464144749E-02  9.868135693E+04  2.576903591E+02  3.389613705E+02  2.861188583E+02  3.087411785E+02  7.019510791E-01 
       112  5.479076840E-02  1.722430532E-01  5.718902978E-02  1.015489856E+05  2.585195951E+02  3.402626829E+02  2.883194904E+02  3.015011063E+02  6.878156923E-01 
       113  5.694737683E-02  1.716020731E-01  5.976586917E-02  1.047261583E+05  2.574186082E+02  3.417245436E+02  2.908023112E+02  2.929951110E+02  6.793742683E-01 
       114  5.911848447E-02  1.709340834E-01  6.233872565E-02  1.082618299E+05  2.554909863E+02  3.433058795E+02  2.934991860E+02  2.832499090E+02  6.725267696E-01 
       115  6.119351897E-02  1.703313828E-01  6.496775561E-02  1.110550034E+05  2.544376712E+02  3.446053619E+02  2.957252836E+02  2.767688932E+02  6.682584938E-01 
       116  6.319798910E-02  1.696485115E-01  6.765543605E-02  1.132168451E+05  2.543145914E+02  3.455626817E+02  2.973700643E+02  2.712399440E+02  6.614822056E-01 
       117  6.520189851E-02  1.689621155E-01  7.034628384E-02  1.151792476E+05  2.535401869E+02  3.464823799E+02  2.989549379E+02  2.657788782E+02  6.578362379E-01 
       118  6.717992039E-02  1.682884043E-01  7.305807409E-02  1.168529116E+05  2.520171423E+02  3.472444448E+02  3.002713308E+02  2.604631062E+02  6.577548981E-01 
       119  6.910755662E-02  1.675987334E-01  7.579818779E-02  1.184218049E+05  2.506182535E+02  3.477594955E+02  3.011626756E+02  2.566881630E+02  6.595831965E-01 
       120  7.101404689E-02  1.668389198E-01  7.852135391E-02  1.194979551E+05  2.474401964E+02  3.482793448E+02  3.020637419E+02  2.541727054E+02  6.697495254E-01 
