nodenumber     x-coordinate     y-coordinate     z-coordinate         pressure velocity-magnitude      sound-speed      temperature rel-velocity-magnitude relative-velocity-angle 
         1 -2.216901913E-02  1.039879580E-01 -4.300600202E-02  8.754910408E+04  1.539576069E+02  3.330491835E+02  2.762228761E+02  2.357982171E+02  8.594172864E-01 
         2 -2.197401757E-02  1.042260031E-01 -4.002397295E-02  8.746535818E+04  1.544258105E+02  3.330064119E+02  2.761519034E+02  2.363251045E+02  8.589051324E-01 
         3 -2.150271627E-02  1.045375264E-01 -3.708169353E-02  8.736518292E+04  1.550180552E+02  3.329548297E+02  2.760663688E+02  2.369727910E+02  8.582357662E-01 
         4 -2.072290556E-02  1.049359494E-01 -3.421635317E-02  8.726333557E+04  1.556544304E+02  3.329015865E+02  2.759781094E+02  2.376735330E+02  8.575917138E-01 
         5 -1.964621854E-02  1.053757771E-01 -3.145501365E-02  8.715467944E+04  1.563427830E+02  3.328414669E+02  2.758784328E+02  2.384588575E+02  8.570144046E-01 
         6 -1.833909717E-02  1.058829391E-01 -2.880182754E-02  8.699849927E+04  1.571343570E+02  3.327601757E+02  2.757437239E+02  2.393811827E+02  8.563896436E-01 
         7 -1.686396899E-02  1.064019756E-01 -2.624136390E-02  8.680811377E+04  1.580372882E+02  3.326587906E+02  2.755757828E+02  2.404021797E+02  8.555446733E-01 
         8 -1.524276490E-02  1.069101094E-01 -2.376908005E-02  8.661812646E+04  1.589653928E+02  3.325563512E+02  2.754060373E+02  2.414924669E+02  8.548561800E-01 
         9 -1.353040875E-02  1.074492491E-01 -2.136449246E-02  8.639035144E+04  1.600894971E+02  3.324360256E+02  2.752068017E+02  2.427293150E+02  8.536533583E-01 
        10 -1.175719847E-02  1.079385502E-01 -1.899452623E-02  8.617134583E+04  1.613518084E+02  3.323214355E+02  2.750170898E+02  2.438269532E+02  8.512243573E-01 
        11 -9.920451205E-03  1.084473482E-01 -1.667649769E-02  8.608636658E+04  1.625103311E+02  3.322728857E+02  2.749367517E+02  2.446289313E+02  8.483524018E-01 
        12 -8.053093039E-03  1.089314126E-01 -1.437870322E-02  8.619031613E+04  1.632339326E+02  3.323248219E+02  2.750226525E+02  2.447292457E+02  8.453460908E-01 
        13 -6.139911673E-03  1.093816015E-01 -1.211111235E-02  8.663183447E+04  1.629102159E+02  3.325557852E+02  2.754051194E+02  2.434783511E+02  8.432400264E-01 
        14 -4.213714023E-03  1.098625599E-01 -9.853315987E-03  8.751816992E+04  1.607643147E+02  3.330198154E+02  2.761742592E+02  2.406716604E+02  8.458990641E-01 
        15 -2.267252226E-03  1.102821410E-01 -7.616721013E-03  8.853267627E+04  1.565242720E+02  3.335724850E+02  2.770917492E+02  2.371995773E+02  8.579601198E-01 
        16 -3.058463972E-04  1.106716081E-01 -5.380345181E-03  8.950044800E+04  1.495122967E+02  3.340813456E+02  2.779379253E+02  2.340525346E+02  8.867444750E-01 
        17  1.649896870E-03  1.110991589E-01 -3.144821902E-03  8.721825293E+04  1.466313505E+02  3.328780298E+02  2.759411480E+02  2.431867018E+02  9.352112180E-01 
        18  3.605378217E-03  1.114680886E-01 -8.997268064E-04  7.573927625E+04  1.757760475E+02  3.263034844E+02  2.651478691E+02  2.856210241E+02  9.365627822E-01 
        19  5.548952344E-03  1.118349081E-01  1.356589372E-03  6.982745776E+04  2.096040643E+02  3.226683886E+02  2.592763760E+02  3.071423881E+02  8.422811823E-01 
        20  7.472030685E-03  1.121892539E-01  3.633809071E-03  7.287281404E+04  2.105256553E+02  3.247860229E+02  2.626926658E+02  2.955461438E+02  7.887693408E-01 
        21  9.366594022E-03  1.125505666E-01  5.932977735E-03  7.654192175E+04  2.079075536E+02  3.269253800E+02  2.661616952E+02  2.852184813E+02  7.619111282E-01 
        22  1.122147558E-02  1.129077905E-01  8.263617067E-03  7.882871233E+04  2.092332568E+02  3.281769038E+02  2.682019651E+02  2.789002663E+02  7.314447439E-01 
        23  1.303284284E-02  1.132507638E-01  1.062953057E-02  8.035644216E+04  2.116386029E+02  3.291059406E+02  2.697220102E+02  2.729841090E+02  6.974815087E-01 
        24  1.479928419E-02  1.136234762E-01  1.303021626E-02  8.154381425E+04  2.156148360E+02  3.298347139E+02  2.709177582E+02  2.682327725E+02  6.600134796E-01 
        25  1.649617427E-02  1.139938279E-01  1.547769530E-02  8.261378522E+04  2.204269001E+02  3.304103940E+02  2.718642123E+02  2.646435983E+02  6.227048142E-01 
        26  1.811807173E-02  1.143837002E-01  1.797032872E-02  8.338348828E+04  2.259473066E+02  3.307537494E+02  2.724291272E+02  2.626284566E+02  5.875784289E-01 
        27  1.968166241E-02  1.148013513E-01  2.049621310E-02  8.354235547E+04  2.330018938E+02  3.307424228E+02  2.724102733E+02  2.630215206E+02  5.532012451E-01 
        28  2.119101764E-02  1.152299366E-01  2.305322148E-02  8.304557044E+04  2.414967315E+02  3.304370920E+02  2.719074609E+02  2.653957783E+02  5.183936559E-01 
        29  2.266338778E-02  1.156643914E-01  2.563116057E-02  8.241701611E+04  2.504694589E+02  3.300188613E+02  2.712198733E+02  2.687116050E+02  4.846040064E-01 
        30  2.408077791E-02  1.161159634E-01  2.823658064E-02  8.188524500E+04  2.587136829E+02  3.296984034E+02  2.706932032E+02  2.715294588E+02  4.530835301E-01 
        31  2.544088325E-02  1.165921105E-01  3.086849856E-02  8.134026257E+04  2.666611722E+02  3.293963261E+02  2.701974998E+02  2.742391624E+02  4.230395290E-01 
        32  2.674433127E-02  1.170738851E-01  3.352942364E-02  8.076798059E+04  2.745238504E+02  3.291138244E+02  2.697342274E+02  2.770478282E+02  3.940315857E-01 
        33  2.797950643E-02  1.175445507E-01  3.622298897E-02  8.023624911E+04  2.822958744E+02  3.288838198E+02  2.693571700E+02  2.797720836E+02  3.652507814E-01 
        34  2.916313541E-02  1.180056499E-01  3.893937175E-02  7.994875987E+04  2.894430017E+02  3.287874110E+02  2.691992649E+02  2.816918480E+02  3.366666536E-01 
        35  3.031249539E-02  1.184785399E-01  4.167042727E-02  8.009660791E+04  2.952461833E+02  3.288834646E+02  2.693565382E+02  2.821854306E+02  3.096795516E-01 
        36  3.139929926E-02  1.189405785E-01  4.442941843E-02  8.039052100E+04  3.006229208E+02  3.290628065E+02  2.696503620E+02  2.821368080E+02  2.828117223E-01 
        37  3.242013936E-02  1.193808800E-01  4.721660669E-02  8.088336199E+04  3.057616504E+02  3.293135010E+02  2.700616559E+02  2.814474316E+02  2.543815203E-01 
        38  3.340677803E-02  1.198011670E-01  5.002067675E-02  8.205398083E+04  3.087777473E+02  3.299367639E+02  2.710851997E+02  2.784041550E+02  2.277371702E-01 
        39  3.430413654E-02  1.201853153E-01  5.285529857E-02  8.358811377E+04  3.105656137E+02  3.308260355E+02  2.725489521E+02  2.739351044E+02  2.018341012E-01 
        40  3.515433510E-02  1.205874318E-01  5.570324370E-02  8.546845557E+04  3.110411282E+02  3.318839931E+02  2.742953663E+02  2.682459564E+02  1.781825153E-01 
        41  3.592907297E-02  1.209644065E-01  5.857535950E-02  8.764213062E+04  3.099903493E+02  3.330730171E+02  2.762647986E+02  2.614832439E+02  1.586932838E-01 
        42  3.664355424E-02  1.213334730E-01  6.146049591E-02  8.999074316E+04  3.074487453E+02  3.342883482E+02  2.782845502E+02  2.540893517E+02  1.452599696E-01 
        43  3.727845098E-02  1.217084379E-01  6.437276718E-02  9.227019800E+04  3.040080595E+02  3.354515543E+02  2.802240963E+02  2.469577589E+02  1.384718083E-01 
        44  3.781448665E-02  1.220744111E-01  6.730672953E-02  9.418533594E+04  3.003758278E+02  3.364710445E+02  2.819295101E+02  2.409433160E+02  1.378948283E-01 
        45  3.826762164E-02  1.224563704E-01  7.025293559E-02  9.553336188E+04  2.973838501E+02  3.372396426E+02  2.832184374E+02  2.369138360E+02  1.421087051E-01 
        46  3.856443464E-02  1.228195695E-01  7.317567491E-02  9.631936719E+04  2.955736847E+02  3.377269592E+02  2.840375137E+02  2.348982925E+02  1.475658305E-01 
        47  3.882754171E-02  1.231963568E-01  7.616928387E-02  9.669050244E+04  2.935828608E+02  3.383984251E+02  2.851691815E+02  2.325802801E+02  1.532664277E-01 
        48  3.896508106E-02  1.235573809E-01  7.913505459E-02  9.682916211E+04  2.897811699E+02  3.393613281E+02  2.868041344E+02  2.267012596E+02  1.575491056E-01 
        49  3.903512947E-02  1.239238609E-01  8.213137167E-02  9.686616907E+04  2.808808305E+02  3.412007616E+02  2.899457581E+02  2.121067963E+02  1.675025604E-01 
        50  3.900153017E-02  1.243001337E-01  8.510504302E-02  9.675566724E+04  2.652799404E+02  3.443467628E+02  2.953356670E+02  1.843566102E+02  1.780416439E-01 
        51  3.889299026E-02  1.246700891E-01  8.806950082E-02  9.656504688E+04  2.483942752E+02  3.480407836E+02  3.017063694E+02  1.414089811E+02  1.631542299E-01 
        52  3.870303970E-02  1.250405990E-01  9.105247242E-02  9.655828418E+04  2.393863044E+02  3.509035721E+02  3.066591735E+02  1.016508609E+02  7.200055750E-02 
        53  3.847530202E-02  1.253810613E-01  9.402032493E-02  9.679133340E+04  2.363924330E+02  3.523704894E+02  3.092230387E+02  6.805465870E+01 -1.520168329E-01 
        54  3.809583015E-02  1.257752167E-01  9.695318516E-02  9.796551465E+04  2.376234512E+02  3.530020447E+02  3.103212891E+02  4.639538765E+01 -9.680701792E-01 
        55  3.767199372E-02  1.261489404E-01  9.992435767E-02  9.957912329E+04  2.459383078E+02  3.526891594E+02  3.097640915E+02  4.258698165E+01 -1.323361989E+00 
        56  3.723780727E-02  1.265196365E-01  1.028569506E-01  1.019741487E+05  2.446966898E+02  3.519688057E+02  3.085012029E+02  5.653592190E+01 -7.223136832E-01 
        57  3.672955052E-02  1.269046997E-01  1.057947981E-01  1.048465620E+05  2.365778189E+02  3.506702652E+02  3.062345514E+02  9.619044304E+01  1.626059110E-02 
        58  3.615520807E-02  1.273091289E-01  1.087154776E-01  1.069887212E+05  2.423824816E+02  3.482661333E+02  3.020561018E+02  1.433940678E+02  1.819496038E-01 
        59  3.556812424E-02  1.277144368E-01  1.116309472E-01  1.079060832E+05  2.543223622E+02  3.458423653E+02  2.978610487E+02  1.752391527E+02  2.053125683E-01 
        60  3.495651588E-02  1.281329458E-01  1.145394580E-01  1.081114856E+05  2.627728481E+02  3.442322588E+02  2.950871744E+02  1.897747312E+02  2.000080324E-01 
        61  3.433795015E-02  1.285471243E-01  1.174457346E-01  1.080398312E+05  2.669980445E+02  3.433960724E+02  2.936528149E+02  1.953560770E+02  1.942587667E-01 
        62  3.376061330E-02  1.289460490E-01  1.203607660E-01  1.079104303E+05  2.691037271E+02  3.430783806E+02  2.931094325E+02  1.974979565E+02  1.903435066E-01 
        63  3.331803132E-02  1.293309423E-01  1.232882868E-01  1.078342175E+05  2.707749417E+02  3.430055122E+02  2.929848832E+02  1.987385588E+02  1.862990229E-01 
        64  3.310586596E-02  1.296649637E-01  1.262581306E-01  1.077966047E+05  2.722217622E+02  3.430167618E+02  2.930040450E+02  1.998314214E+02  1.832117682E-01 
        65  3.306639982E-02  1.299493947E-01  1.292495641E-01  1.077389686E+05  2.734282528E+02  3.430249751E+02  2.930180767E+02  2.008218880E+02  1.812507685E-01 
        66  3.322486525E-02  1.302097713E-01  1.322380794E-01  1.076170598E+05  2.745129196E+02  3.429856409E+02  2.929509046E+02  2.020300488E+02  1.810009827E-01 
        67  3.356462385E-02  1.304573038E-01  1.352130229E-01  1.074529344E+05  2.755132074E+02  3.429187986E+02  2.928367201E+02  2.033175763E+02  1.818909009E-01 
        68  3.400410102E-02  1.306751199E-01  1.381765647E-01  1.072438364E+05  2.765392344E+02  3.428268056E+02  2.926796477E+02  2.047898934E+02  1.831801862E-01 
        69  3.451963359E-02  1.308741206E-01  1.411278790E-01  1.070103112E+05  2.776899981E+02  3.427186208E+02  2.924950006E+02  2.064886150E+02  1.845788828E-01 
        70  3.508991352E-02  1.310576265E-01  1.440660380E-01  1.067307070E+05  2.788548713E+02  3.425979996E+02  2.922890911E+02  2.082456036E+02  1.861275607E-01 
        71  3.570211579E-02  1.312503676E-01  1.470000000E-01  1.063184092E+05  2.802191429E+02  3.424166222E+02  2.919799500E+02  2.103016567E+02  1.872887705E-01 
        72 -2.843361623E-02  1.708417341E-01 -4.258217492E-02  8.204105151E+04  1.835889378E+02  3.299923325E+02  2.711755428E+02  3.441359396E+02  1.007974476E+00 
        73 -2.838826984E-02  1.709653765E-01 -3.916427879E-02  8.202772974E+04  1.843923810E+02  3.299404290E+02  2.710903761E+02  3.449360390E+02  1.006710581E+00 
        74 -2.835908450E-02  1.711140563E-01 -3.574649433E-02  8.236595551E+04  1.837916791E+02  3.301599538E+02  2.714512246E+02  3.437119286E+02  1.006536064E+00 
        75 -2.838361088E-02  1.712589164E-01 -3.232950605E-02  8.299867358E+04  1.826923366E+02  3.305472221E+02  2.720884647E+02  3.421155500E+02  1.007480975E+00 
        76 -2.841360827E-02  1.714319125E-01 -2.891476756E-02  8.371877966E+04  1.817809443E+02  3.309198184E+02  2.727021389E+02  3.408445764E+02  1.008372428E+00 
        77 -2.833774301E-02  1.716334782E-01 -2.549995819E-02  8.422323837E+04  1.806396674E+02  3.312268815E+02  2.732084184E+02  3.390233791E+02  1.009133375E+00 
        78 -2.791452343E-02  1.719215161E-01 -2.212016887E-02  8.446079785E+04  1.799025755E+02  3.313523674E+02  2.734155245E+02  3.388835449E+02  1.011481628E+00 
        79 -2.700703325E-02  1.722886754E-01 -1.884820631E-02  8.429108521E+04  1.798131967E+02  3.312291565E+02  2.732123871E+02  3.397580118E+02  1.013415314E+00 
        80 -2.544395246E-02  1.727209334E-01 -1.584518523E-02  8.321846515E+04  1.811554255E+02  3.306389496E+02  2.722399905E+02  3.427106650E+02  1.014077046E+00 
        81 -2.351536464E-02  1.732363399E-01 -1.306823492E-02  8.130044354E+04  1.846808760E+02  3.295515366E+02  2.704525944E+02  3.484902505E+02  1.012532269E+00 
        82 -2.134527601E-02  1.737374909E-01 -1.047435973E-02  7.870303882E+04  1.908016903E+02  3.280136076E+02  2.679349530E+02  3.565519713E+02  1.006934432E+00 
        83 -1.897326710E-02  1.742189522E-01 -8.035177519E-03  7.555423578E+04  1.993010811E+02  3.261120439E+02  2.648373473E+02  3.659701250E+02  9.966729186E-01 
        84 -1.652827274E-02  1.746780172E-01 -5.688541800E-03  7.293492798E+04  2.072208760E+02  3.244700389E+02  2.621772225E+02  3.723552551E+02  9.827078618E-01 
        85 -1.397929867E-02  1.751251779E-01 -3.446989688E-03  7.233235486E+04  2.108909535E+02  3.240365791E+02  2.614771547E+02  3.744334469E+02  9.747034255E-01 
        86 -1.139011487E-02  1.755573757E-01 -1.256774906E-03  7.394358850E+04  2.102297051E+02  3.250143094E+02  2.630579476E+02  3.710419626E+02  9.697292484E-01 
        87 -8.734274343E-03  1.759085237E-01  8.667805443E-04  7.936832251E+04  2.025920938E+02  3.283930068E+02  2.685612738E+02  3.570462537E+02  9.680148289E-01 
        88 -6.073383534E-03  1.762548475E-01  2.984781313E-03  8.854246021E+04  1.911431620E+02  3.334900687E+02  2.769619168E+02  3.300324342E+02  9.609584184E-01 
        89 -3.359730182E-03  1.765819110E-01  5.053045394E-03  9.841818579E+04  1.759107544E+02  3.383733153E+02  2.851284213E+02  3.033519819E+02  9.787039198E-01 
        90 -6.741955509E-04  1.768270807E-01  7.130208361E-03  9.813632669E+04  1.627475048E+02  3.385746577E+02  2.854672071E+02  3.071970607E+02  1.029062406E+00 
        91  2.027043660E-03  1.770783858E-01  9.208570588E-03  7.910019643E+04  1.913406547E+02  3.280882106E+02  2.680617273E+02  3.558674474E+02  1.004342641E+00 
        92  4.731686997E-03  1.772422585E-01  1.127155269E-02  7.271482201E+04  2.143756613E+02  3.242849192E+02  2.618813295E+02  3.774668956E+02  9.682896301E-01 
        93  7.454465044E-03  1.773874983E-01  1.334309669E-02  7.315032181E+04  2.101449766E+02  3.245864819E+02  2.623676659E+02  3.757342696E+02  9.791774049E-01 
        94  1.015989937E-02  1.775222933E-01  1.545596277E-02  7.057586099E+04  2.173520473E+02  3.229636529E+02  2.597542512E+02  3.814355822E+02  9.669062332E-01 
        95  1.284858280E-02  1.775661421E-01  1.756817794E-02  6.716047012E+04  2.285773240E+02  3.206532773E+02  2.560525224E+02  3.918718572E+02  9.516124371E-01 
        96  1.551966693E-02  1.776138061E-01  1.970369132E-02  6.424205762E+04  2.376402705E+02  3.186316502E+02  2.528320637E+02  4.009531364E+02  9.412039770E-01 
        97  1.817410325E-02  1.776258069E-01  2.186017323E-02  6.184514526E+04  2.451360576E+02  3.170099268E+02  2.502634912E+02  4.076705661E+02  9.313686797E-01 
        98  2.080993586E-02  1.775631240E-01  2.403936301E-02  6.016777832E+04  2.522374868E+02  3.158517814E+02  2.484361343E+02  4.125524635E+02  9.188799281E-01 
        99  2.341570779E-02  1.774969016E-01  2.625394818E-02  5.975739990E+04  2.574508510E+02  3.155755711E+02  2.480015359E+02  4.143410950E+02  9.054993838E-01 
       100  2.600295182E-02  1.773818036E-01  2.848806157E-02  6.153803320E+04  2.588864384E+02  3.169310112E+02  2.501516533E+02  4.101110373E+02  8.909876011E-01 
       101  2.856627515E-02  1.771883875E-01  3.074502562E-02  6.694119434E+04  2.542120132E+02  3.208151550E+02  2.563638678E+02  3.945890884E+02  8.731134236E-01 
       102  3.110662233E-02  1.769811535E-01  3.302644514E-02  7.520116943E+04  2.461939859E+02  3.262430983E+02  2.651154842E+02  3.709890108E+02  8.514737580E-01 
       103  3.362247542E-02  1.767159818E-01  3.532849163E-02  8.172247375E+04  2.429175005E+02  3.301054802E+02  2.713825612E+02  3.530398417E+02  8.273159079E-01 
       104  3.610895472E-02  1.763647845E-01  3.765120331E-02  8.265594165E+04  2.484055631E+02  3.303963399E+02  2.718462300E+02  3.514085078E+02  8.056371156E-01 
       105  3.856497337E-02  1.759966372E-01  4.000321012E-02  8.010199350E+04  2.567933096E+02  3.289377741E+02  2.694494845E+02  3.590324504E+02  7.913757856E-01 
       106  4.103059304E-02  1.755360248E-01  4.234569910E-02  7.816846178E+04  2.630202567E+02  3.280752417E+02  2.680345267E+02  3.632103844E+02  7.780858583E-01 
       107  4.340106546E-02  1.750377176E-01  4.474435622E-02  7.916100851E+04  2.664084451E+02  3.286862438E+02  2.690362071E+02  3.609372593E+02  7.623587472E-01 
       108  4.575540032E-02  1.745445103E-01  4.717695363E-02  8.341401501E+04  2.653926625E+02  3.309762702E+02  2.728046155E+02  3.499651861E+02  7.455888465E-01 
       109  4.807037784E-02  1.739953488E-01  4.963532790E-02  8.955212549E+04  2.610214901E+02  3.341828060E+02  2.781175013E+02  3.332284346E+02  7.308158483E-01 
       110  5.034733117E-02  1.734133857E-01  5.212084081E-02  9.498741016E+04  2.578492813E+02  3.369200134E+02  2.826860504E+02  3.180331974E+02  7.162415795E-01 
       111  5.258765486E-02  1.728405975E-01  5.464144749E-02  9.847393408E+04  2.579328995E+02  3.386624546E+02  2.856142845E+02  3.089754333E+02  7.013980523E-01 
       112  5.479076840E-02  1.722430532E-01  5.718902978E-02  1.012033005E+05  2.588517065E+02  3.400476122E+02  2.879553785E+02  3.028647385E+02  6.886823755E-01 
       113  5.694737683E-02  1.716020731E-01  5.976586917E-02  1.043567774E+05  2.586507442E+02  3.416007428E+02  2.905916035E+02  2.948533387E+02  6.775260800E-01 
       114  5.911848447E-02  1.709340834E-01  6.233872565E-02  1.078176738E+05  2.569220482E+02  3.432867434E+02  2.934667639E+02  2.855549082E+02  6.702799718E-01 
       115  6.119351897E-02  1.703313828E-01  6.496775561E-02  1.108554099E+05  2.554657574E+02  3.446686468E+02  2.958339295E+02  2.770595002E+02  6.646185350E-01 
       116  6.319798910E-02  1.696485115E-01  6.765543605E-02  1.134260881E+05  2.544395118E+02  3.457089572E+02  2.976219044E+02  2.700663185E+02  6.594957067E-01 
       117  6.520189851E-02  1.689621155E-01  7.034628384E-02  1.154534849E+05  2.533043566E+02  3.465955000E+02  2.991502247E+02  2.647009449E+02  6.574900355E-01 
       118  6.717992039E-02  1.682884043E-01  7.305807409E-02  1.172542124E+05  2.522110987E+02  3.473242817E+02  3.004093666E+02  2.602697830E+02  6.567614917E-01 
       119  6.910755662E-02  1.675987334E-01  7.579818779E-02  1.187475825E+05  2.506838622E+02  3.479788523E+02  3.015427287E+02  2.565176651E+02  6.590657411E-01 
       120  7.101404689E-02  1.668389198E-01  7.852135391E-02  1.197694545E+05  2.475289283E+02  3.484845049E+02  3.024197872E+02  2.537413037E+02  6.689092540E-01 
