nodenumber     x-coordinate     y-coordinate     z-coordinate         pressure velocity-magnitude      sound-speed      temperature rel-velocity-magnitude relative-velocity-angle 
         1 -2.216901913E-02  1.039879580E-01 -4.300600202E-02  8.759538174E+04  1.537558264E+02  3.330631570E+02  2.762460383E+02  2.357062957E+02  8.602520796E-01 
         2 -2.197401757E-02  1.042260031E-01 -4.002397295E-02  8.746404596E+04  1.544250231E+02  3.329988877E+02  2.761394786E+02  2.364095089E+02  8.592410628E-01 
         3 -2.150271627E-02  1.045375264E-01 -3.708169353E-02  8.736318237E+04  1.550750713E+02  3.329460044E+02  2.760518024E+02  2.370246924E+02  8.581216754E-01 
         4 -2.072290556E-02  1.049359494E-01 -3.421635317E-02  8.725701746E+04  1.556966567E+02  3.328945394E+02  2.759664283E+02  2.377148876E+02  8.575023925E-01 
         5 -1.964621854E-02  1.053757771E-01 -3.145501365E-02  8.715888232E+04  1.563812823E+02  3.328415680E+02  2.758786349E+02  2.384489460E+02  8.567937873E-01 
         6 -1.833909717E-02  1.058829391E-01 -2.880182754E-02  8.701600928E+04  1.570840430E+02  3.327700472E+02  2.757601080E+02  2.392997789E+02  8.564084899E-01 
         7 -1.686396899E-02  1.064019756E-01 -2.624136390E-02  8.682153198E+04  1.580444403E+02  3.326601133E+02  2.755780029E+02  2.403644376E+02  8.554125372E-01 
         8 -1.524276490E-02  1.069101094E-01 -2.376908005E-02  8.659399792E+04  1.590347395E+02  3.325378556E+02  2.753755431E+02  2.415594916E+02  8.547384869E-01 
         9 -1.353040875E-02  1.074492491E-01 -2.136449246E-02  8.634551501E+04  1.601205604E+02  3.324167862E+02  2.751750693E+02  2.429551244E+02  8.542652102E-01 
        10 -1.175719847E-02  1.079385502E-01 -1.899452623E-02  8.609157544E+04  1.615841213E+02  3.322724741E+02  2.749361310E+02  2.441256065E+02  8.510105107E-01 
        11 -9.920451205E-03  1.084473482E-01 -1.667649769E-02  8.599547955E+04  1.630673385E+02  3.321943413E+02  2.748068031E+02  2.450036541E+02  8.466782954E-01 
        12 -8.053093039E-03  1.089314126E-01 -1.437870322E-02  8.618271298E+04  1.633934944E+02  3.323137256E+02  2.750043718E+02  2.445525628E+02  8.439127235E-01 
        13 -6.139911673E-03  1.093816015E-01 -1.211111235E-02  8.669648071E+04  1.628188519E+02  3.325905371E+02  2.754626694E+02  2.431687384E+02  8.427010141E-01 
        14 -4.213714023E-03  1.098625599E-01 -9.853315987E-03  8.751277441E+04  1.605771275E+02  3.330420570E+02  2.762111588E+02  2.406004477E+02  8.466231748E-01 
        15 -2.267252226E-03  1.102821410E-01 -7.616721013E-03  8.859209570E+04  1.561971464E+02  3.336254082E+02  2.771796732E+02  2.370347805E+02  8.592830636E-01 
        16 -3.058463972E-04  1.106716081E-01 -5.380345181E-03  8.945838818E+04  1.498360720E+02  3.340247746E+02  2.778439445E+02  2.340635171E+02  8.852247950E-01 
        17  1.649896870E-03  1.110991589E-01 -3.144821902E-03  8.730036072E+04  1.455988891E+02  3.330148439E+02  2.761678231E+02  2.431213741E+02  9.400885571E-01 
        18  3.605378217E-03  1.114680886E-01 -8.997268064E-04  7.557738489E+04  1.737140069E+02  3.263297172E+02  2.651904387E+02  2.847943411E+02  9.452109411E-01 
        19  5.548952344E-03  1.118349081E-01  1.356589372E-03  6.987615314E+04  2.095376885E+02  3.227552345E+02  2.594136770E+02  3.081862075E+02  8.468357953E-01 
        20  7.472030685E-03  1.121892539E-01  3.633809071E-03  7.291885849E+04  2.144392816E+02  3.244788352E+02  2.621959843E+02  3.010119121E+02  7.901730768E-01 
        21  9.366594022E-03  1.125505666E-01  5.932977735E-03  7.666949542E+04  2.094315444E+02  3.269122560E+02  2.661428139E+02  2.859242318E+02  7.569102710E-01 
        22  1.122147558E-02  1.129077905E-01  8.263617067E-03  7.905348154E+04  2.088238344E+02  3.283357829E+02  2.684637507E+02  2.770575828E+02  7.268153208E-01 
        23  1.303284284E-02  1.132507638E-01  1.062953057E-02  8.052810160E+04  2.113100644E+02  3.292028187E+02  2.698815096E+02  2.720967231E+02  6.965245891E-01 
        24  1.479928419E-02  1.136234762E-01  1.303021626E-02  8.164256087E+04  2.149942641E+02  3.299132913E+02  2.710472007E+02  2.672608635E+02  6.603623729E-01 
        25  1.649617427E-02  1.139938279E-01  1.547769530E-02  8.268968213E+04  2.196946723E+02  3.304681461E+02  2.719595051E+02  2.640209899E+02  6.246691039E-01 
        26  1.811807173E-02  1.143837002E-01  1.797032872E-02  8.341941431E+04  2.255677938E+02  3.307700415E+02  2.724561715E+02  2.633219628E+02  5.922561111E-01 
        27  1.968166241E-02  1.148013513E-01  2.049621310E-02  8.349126624E+04  2.329677432E+02  3.307408388E+02  2.724080176E+02  2.646908710E+02  5.595933376E-01 
        28  2.119101764E-02  1.152299366E-01  2.305322148E-02  8.298443651E+04  2.417949331E+02  3.304591349E+02  2.719440129E+02  2.672018023E+02  5.236159701E-01 
        29  2.266338778E-02  1.156643914E-01  2.563116057E-02  8.241526587E+04  2.506541396E+02  3.301577494E+02  2.714483134E+02  2.693173600E+02  4.858616958E-01 
        30  2.408077791E-02  1.161159634E-01  2.823658064E-02  8.190126642E+04  2.591533604E+02  3.298336589E+02  2.709156592E+02  2.716500823E+02  4.512137147E-01 
        31  2.544088325E-02  1.165921105E-01  3.086849856E-02  8.136156482E+04  2.673532181E+02  3.294618659E+02  2.703055105E+02  2.744868445E+02  4.202757720E-01 
        32  2.674433127E-02  1.170738851E-01  3.352942364E-02  8.080105750E+04  2.751157200E+02  3.291173511E+02  2.697405398E+02  2.772453413E+02  3.916231869E-01 
        33  2.797950643E-02  1.175445507E-01  3.622298897E-02  8.028639755E+04  2.826014891E+02  3.288430997E+02  2.692908959E+02  2.796074622E+02  3.630447340E-01 
        34  2.916313541E-02  1.180056499E-01  3.893937175E-02  7.999902338E+04  2.896877261E+02  3.286963022E+02  2.690502427E+02  2.814333668E+02  3.343599653E-01 
        35  3.031249539E-02  1.184785399E-01  4.167042727E-02  8.011055966E+04  2.955553461E+02  3.287694566E+02  2.691701223E+02  2.821963893E+02  3.079720110E-01 
        36  3.139929926E-02  1.189405785E-01  4.442941843E-02  8.036778085E+04  3.011617597E+02  3.289002962E+02  2.693843562E+02  2.825112991E+02  2.813635617E-01 
        37  3.242013936E-02  1.193808800E-01  4.721660669E-02  8.087232266E+04  3.063044946E+02  3.292106930E+02  2.698931623E+02  2.817432860E+02  2.526371751E-01 
        38  3.340677803E-02  1.198011670E-01  5.002067675E-02  8.205261740E+04  3.090227945E+02  3.299519608E+02  2.711104078E+02  2.783034910E+02  2.260030083E-01 
        39  3.430413654E-02  1.201853153E-01  5.285529857E-02  8.365439941E+04  3.104312706E+02  3.309028978E+02  2.726758938E+02  2.735418205E+02  2.009933200E-01 
        40  3.515433510E-02  1.205874318E-01  5.570324370E-02  8.564649805E+04  3.105271473E+02  3.320259609E+02  2.745304775E+02  2.675175457E+02  1.781094512E-01 
        41  3.592907297E-02  1.209644065E-01  5.857535950E-02  8.795818213E+04  3.090824022E+02  3.332892752E+02  2.766240153E+02  2.604058776E+02  1.594467368E-01 
        42  3.664355424E-02  1.213334730E-01  6.146049591E-02  9.043424451E+04  3.062392621E+02  3.345533099E+02  2.787260609E+02  2.527808714E+02  1.468556870E-01 
        43  3.727845098E-02  1.217084379E-01  6.437276718E-02  9.279006299E+04  3.026135302E+02  3.357093554E+02  2.806550093E+02  2.456201220E+02  1.411573654E-01 
        44  3.781448665E-02  1.220744111E-01  6.730672953E-02  9.470617334E+04  2.989645433E+02  3.366896448E+02  2.822957230E+02  2.398002963E+02  1.416252889E-01 
        45  3.826762164E-02  1.224563704E-01  7.025293559E-02  9.600173633E+04  2.962356024E+02  3.373871677E+02  2.834661865E+02  2.360192523E+02  1.454090750E-01 
        46  3.856443464E-02  1.228195695E-01  7.317567491E-02  9.667687891E+04  2.946137466E+02  3.378270569E+02  2.842058868E+02  2.341943436E+02  1.505921893E-01 
        47  3.882754171E-02  1.231963568E-01  7.616928387E-02  9.688680365E+04  2.931293937E+02  3.384339867E+02  2.852293273E+02  2.325352242E+02  1.561068809E-01 
        48  3.896508106E-02  1.235573809E-01  7.913505459E-02  9.678617578E+04  2.897420883E+02  3.393838196E+02  2.868439827E+02  2.270373993E+02  1.600411832E-01 
        49  3.903512947E-02  1.239238609E-01  8.213137167E-02  9.660066785E+04  2.814526725E+02  3.411402612E+02  2.898427894E+02  2.121126330E+02  1.648561957E-01 
        50  3.900153017E-02  1.243001337E-01  8.510504302E-02  9.643220026E+04  2.661883664E+02  3.441504364E+02  2.949944108E+02  1.841440030E+02  1.701839706E-01 
        51  3.889299026E-02  1.246700891E-01  8.806950082E-02  9.639131140E+04  2.489329028E+02  3.477679472E+02  3.012307243E+02  1.392773190E+02  1.433638745E-01 
        52  3.870303970E-02  1.250405990E-01  9.105247242E-02  9.684319116E+04  2.398712473E+02  3.509392033E+02  3.067190146E+02  9.507608080E+01  1.006802195E-04 
        53  3.847530202E-02  1.253810613E-01  9.402032493E-02  9.732538315E+04  2.346257631E+02  3.530609486E+02  3.104303230E+02  5.607629197E+01 -2.503056237E-01 
        54  3.809583015E-02  1.257752167E-01  9.695318516E-02  9.772906836E+04  2.299233742E+02  3.536313667E+02  3.114241486E+02  3.550550914E+01 -1.572868288E+00 
        55  3.767199372E-02  1.261489404E-01  9.992435767E-02  9.881724780E+04  2.391522198E+02  3.527173805E+02  3.098147607E+02  4.121330929E+01 -1.479439173E+00 
        56  3.723780727E-02  1.265196365E-01  1.028569506E-01  1.013645799E+05  2.458195953E+02  3.517316254E+02  3.080867251E+02  5.578742783E+01 -1.137971697E+00 
        57  3.672955052E-02  1.269046997E-01  1.057947981E-01  1.040976003E+05  2.486742818E+02  3.508584490E+02  3.065590534E+02  9.232781219E+01 -3.299867243E-01 
        58  3.615520807E-02  1.273091289E-01  1.087154776E-01  1.056766558E+05  2.534468894E+02  3.489527111E+02  3.032407827E+02  1.412961826E+02  5.574055063E-02 
        59  3.556812424E-02  1.277144368E-01  1.116309472E-01  1.066733881E+05  2.576032922E+02  3.460732746E+02  2.982554171E+02  1.802224722E+02  2.023808670E-01 
        60  3.495651588E-02  1.281329458E-01  1.145394580E-01  1.076200432E+05  2.606439128E+02  3.439988999E+02  2.946859407E+02  1.921842599E+02  2.229200257E-01 
        61  3.433795015E-02  1.285471243E-01  1.174457346E-01  1.081000193E+05  2.612289937E+02  3.434812264E+02  2.937982435E+02  1.900543954E+02  2.123851955E-01 
        62  3.376061330E-02  1.289460490E-01  1.203607660E-01  1.082877362E+05  2.635057960E+02  3.434378405E+02  2.937240489E+02  1.905335983E+02  2.010082162E-01 
        63  3.331803132E-02  1.293309423E-01  1.232882868E-01  1.082553791E+05  2.675930468E+02  3.432921218E+02  2.934748377E+02  1.947673812E+02  1.921134106E-01 
        64  3.310586596E-02  1.296649637E-01  1.262581306E-01  1.081570874E+05  2.710520091E+02  3.431306419E+02  2.931987717E+02  1.988111073E+02  1.869165753E-01 
        65  3.306639982E-02  1.299493947E-01  1.292495641E-01  1.080162329E+05  2.729847707E+02  3.430525908E+02  2.930654399E+02  2.014033287E+02  1.861624852E-01 
        66  3.322486525E-02  1.302097713E-01  1.322380794E-01  1.078390165E+05  2.740286920E+02  3.430114544E+02  2.929950616E+02  2.027780429E+02  1.867379872E-01 
        67  3.356462385E-02  1.304573038E-01  1.352130229E-01  1.076192416E+05  2.749974791E+02  3.429551501E+02  2.928989007E+02  2.040962770E+02  1.878942257E-01 
        68  3.400410102E-02  1.306751199E-01  1.381765647E-01  1.073504641E+05  2.760853024E+02  3.428624816E+02  2.927406549E+02  2.052460816E+02  1.876229192E-01 
        69  3.451963359E-02  1.308741206E-01  1.411278790E-01  1.070350728E+05  2.773363764E+02  3.427299199E+02  2.925143149E+02  2.067230163E+02  1.875939618E-01 
        70  3.508991352E-02  1.310576265E-01  1.440660380E-01  1.066927177E+05  2.785913150E+02  3.425852861E+02  2.922674599E+02  2.083532703E+02  1.881182538E-01 
        71  3.570211579E-02  1.312503676E-01  1.470000000E-01  1.063121260E+05  2.799800262E+02  3.424225540E+02  2.919896927E+02  2.103756313E+02  1.889912747E-01 
        72 -2.843361623E-02  1.708417341E-01 -4.258217492E-02  8.205751343E+04  1.837943077E+02  3.299820538E+02  2.711587954E+02  3.445314007E+02  1.008051548E+00 
        73 -2.838826984E-02  1.709653765E-01 -3.916427879E-02  8.207960675E+04  1.841990438E+02  3.299656694E+02  2.711321280E+02  3.447122736E+02  1.007075053E+00 
        74 -2.835908450E-02  1.711140563E-01 -3.574649433E-02  8.235797705E+04  1.839085761E+02  3.301305499E+02  2.714032168E+02  3.436023788E+02  1.006242010E+00 
        75 -2.838361088E-02  1.712589164E-01 -3.232950605E-02  8.287346704E+04  1.829018879E+02  3.304732313E+02  2.719670763E+02  3.423557014E+02  1.007357560E+00 
        76 -2.841360827E-02  1.714319125E-01 -2.891476756E-02  8.346065222E+04  1.823739080E+02  3.307566314E+02  2.724336376E+02  3.417678962E+02  1.008137273E+00 
        77 -2.833774301E-02  1.716334782E-01 -2.549995819E-02  8.409757727E+04  1.806694530E+02  3.311690313E+02  2.731133444E+02  3.389760618E+02  1.009152199E+00 
        78 -2.791452343E-02  1.719215161E-01 -2.212016887E-02  8.446681152E+04  1.799876080E+02  3.313256969E+02  2.733715992E+02  3.390972137E+02  1.011688512E+00 
        79 -2.700703325E-02  1.722886754E-01 -1.884820631E-02  8.429808643E+04  1.796629987E+02  3.312409611E+02  2.732317896E+02  3.397379274E+02  1.013964251E+00 
        80 -2.544395246E-02  1.727209334E-01 -1.584518523E-02  8.325691187E+04  1.811931911E+02  3.306392698E+02  2.722400696E+02  3.426030293E+02  1.013788948E+00 
        81 -2.351536464E-02  1.732363399E-01 -1.306823492E-02  8.138930978E+04  1.847767643E+02  3.296024789E+02  2.705362293E+02  3.485630735E+02  1.012230135E+00 
        82 -2.134527601E-02  1.737374909E-01 -1.047435973E-02  7.863610188E+04  1.909536687E+02  3.279864053E+02  2.678901736E+02  3.559261053E+02  1.005126382E+00 
        83 -1.897326710E-02  1.742189522E-01 -8.035177519E-03  7.558226364E+04  1.985255203E+02  3.261714903E+02  2.649343506E+02  3.645999384E+02  9.963956992E-01 
        84 -1.652827274E-02  1.746780172E-01 -5.688541800E-03  7.334748291E+04  2.062245643E+02  3.247392559E+02  2.626118670E+02  3.712877340E+02  9.837122252E-01 
        85 -1.397929867E-02  1.751251779E-01 -3.446989688E-03  7.270359204E+04  2.094969172E+02  3.243573093E+02  2.619939580E+02  3.745517750E+02  9.793324005E-01 
        86 -1.139011487E-02  1.755573757E-01 -1.256774906E-03  7.370210962E+04  2.112075508E+02  3.248811412E+02  2.628438239E+02  3.713521132E+02  9.667910393E-01 
        87 -8.734274343E-03  1.759085237E-01  8.667805443E-04  7.881206628E+04  2.045481797E+02  3.279292254E+02  2.678042912E+02  3.573862104E+02  9.625062039E-01 
        88 -6.073383534E-03  1.762548475E-01  2.984781313E-03  8.839535522E+04  1.911699564E+02  3.333828125E+02  2.767832122E+02  3.324994681E+02  9.654320213E-01 
        89 -3.359730182E-03  1.765819110E-01  5.053045394E-03  9.816679486E+04  1.762079661E+02  3.381791568E+02  2.848008546E+02  3.071251926E+02  9.820063380E-01 
        90 -6.741955509E-04  1.768270807E-01  7.130208361E-03  9.809327962E+04  1.623924336E+02  3.385637437E+02  2.854491476E+02  3.037156494E+02  1.026541598E+00 
        91  2.027043660E-03  1.770783858E-01  9.208570588E-03  7.934530794E+04  1.917974257E+02  3.282476559E+02  2.683247364E+02  3.588267075E+02  1.008604394E+00 
        92  4.731686997E-03  1.772422585E-01  1.127155269E-02  7.301765030E+04  2.131426007E+02  3.245127128E+02  2.622485531E+02  3.749844607E+02  9.677509505E-01 
        93  7.454465044E-03  1.773874983E-01  1.334309669E-02  7.355918610E+04  2.091861079E+02  3.248406838E+02  2.627772374E+02  3.731190110E+02  9.769619890E-01 
        94  1.015989937E-02  1.775222933E-01  1.545596277E-02  7.076189825E+04  2.175115327E+02  3.229726422E+02  2.597679845E+02  3.812021551E+02  9.659333460E-01 
        95  1.284858280E-02  1.775661421E-01  1.756817794E-02  6.727456589E+04  2.283822792E+02  3.207232630E+02  2.561630410E+02  3.928043640E+02  9.544203156E-01 
        96  1.551966693E-02  1.776138061E-01  1.970369132E-02  6.427075140E+04  2.376403921E+02  3.186575365E+02  2.528746083E+02  4.018642116E+02  9.433529107E-01 
        97  1.817410325E-02  1.776258069E-01  2.186017323E-02  6.175425342E+04  2.458575547E+02  3.168901892E+02  2.500758357E+02  4.086680455E+02  9.313407019E-01 
        98  2.080993586E-02  1.775631240E-01  2.403936301E-02  5.994379663E+04  2.532211022E+02  3.156136394E+02  2.480630512E+02  4.138572264E+02  9.186340626E-01 
        99  2.341570779E-02  1.774969016E-01  2.625394818E-02  5.948947131E+04  2.574794369E+02  3.154208078E+02  2.477609191E+02  4.142894392E+02  9.053180404E-01 
       100  2.600295182E-02  1.773818036E-01  2.848806157E-02  6.128040820E+04  2.580313406E+02  3.168769932E+02  2.500674629E+02  4.082020750E+02  8.897787184E-01 
       101  2.856627515E-02  1.771883875E-01  3.074502562E-02  6.668058789E+04  2.531316004E+02  3.207674990E+02  2.562902718E+02  3.925430975E+02  8.730389625E-01 
       102  3.110662233E-02  1.769811535E-01  3.302644514E-02  7.500100342E+04  2.450148563E+02  3.262783089E+02  2.651761875E+02  3.686120358E+02  8.515112083E-01 
       103  3.362247542E-02  1.767159818E-01  3.532849163E-02  8.176345508E+04  2.426469183E+02  3.302115364E+02  2.715595078E+02  3.516453447E+02  8.259367440E-01 
       104  3.610895472E-02  1.763647845E-01  3.765120331E-02  8.320272461E+04  2.483782649E+02  3.307111392E+02  2.723650069E+02  3.502764926E+02  8.038912481E-01 
       105  3.856497337E-02  1.759966372E-01  4.000321012E-02  8.066222955E+04  2.567338077E+02  3.292979838E+02  2.700407193E+02  3.571673365E+02  7.884600195E-01 
       106  4.103059304E-02  1.755360248E-01  4.234569910E-02  7.833147064E+04  2.635159308E+02  3.281817954E+02  2.682091927E+02  3.630733521E+02  7.763535760E-01 
       107  4.340106546E-02  1.750377176E-01  4.474435622E-02  7.900407767E+04  2.671268779E+02  3.286152868E+02  2.689202001E+02  3.617789375E+02  7.617055357E-01 
       108  4.575540032E-02  1.745445103E-01  4.717695363E-02  8.278339600E+04  2.664044797E+02  3.307739630E+02  2.724717968E+02  3.517357941E+02  7.455219822E-01 
       109  4.807037784E-02  1.739953488E-01  4.963532790E-02  8.892667773E+04  2.613279009E+02  3.341629114E+02  2.780870790E+02  3.349905472E+02  7.330242638E-01 
       110  5.034733117E-02  1.734133857E-01  5.212084081E-02  9.488183496E+04  2.575482445E+02  3.371995220E+02  2.831568336E+02  3.184294147E+02  7.181361504E-01 
       111  5.258765486E-02  1.728405975E-01  5.464144749E-02  9.887503467E+04  2.575763607E+02  3.391024380E+02  2.863574181E+02  3.078961067E+02  7.009901032E-01 
       112  5.479076840E-02  1.722430532E-01  5.718902978E-02  1.017751880E+05  2.579334717E+02  3.405103188E+02  2.887394724E+02  3.009631872E+02  6.890759747E-01 
       113  5.694737683E-02  1.716020731E-01  5.976586917E-02  1.048421802E+05  2.570057905E+02  3.419826617E+02  2.912418821E+02  2.922902992E+02  6.798599651E-01 
       114  5.911848447E-02  1.709340834E-01  6.233872565E-02  1.082289149E+05  2.554211215E+02  3.434901958E+02  2.938142705E+02  2.829901792E+02  6.724900659E-01 
       115  6.119351897E-02  1.703313828E-01  6.496775561E-02  1.109897312E+05  2.543012109E+02  3.446328487E+02  2.957724481E+02  2.760789323E+02  6.678006779E-01 
       116  6.319798910E-02  1.696485115E-01  6.765543605E-02  1.131422853E+05  2.532440238E+02  3.455271764E+02  2.973092532E+02  2.697267179E+02  6.637385879E-01 
       117  6.520189851E-02  1.689621155E-01  7.034628384E-02  1.151355898E+05  2.521947813E+02  3.463373508E+02  2.987049484E+02  2.650388060E+02  6.623832565E-01 
       118  6.717992039E-02  1.682884043E-01  7.305807409E-02  1.168969512E+05  2.513343925E+02  3.470932894E+02  3.000100470E+02  2.615146446E+02  6.618173346E-01 
       119  6.910755662E-02  1.675987334E-01  7.579818779E-02  1.184628605E+05  2.504792485E+02  3.477805188E+02  3.011990955E+02  2.584358101E+02  6.620289967E-01 
       120  7.101404689E-02  1.668389198E-01  7.852135391E-02  1.195580772E+05  2.474902272E+02  3.483651259E+02  3.022126198E+02  2.549300480E+02  6.702873698E-01 
