nodenumber     x-coordinate     y-coordinate     z-coordinate         pressure velocity-magnitude      sound-speed      temperature rel-velocity-magnitude relative-velocity-angle 
         1 -2.216901913E-02  1.039879580E-01 -4.300600202E-02  8.755535353E+04  1.538704569E+02  3.330538837E+02  2.762306746E+02  2.357372938E+02  8.596864648E-01 
         2 -2.197401757E-02  1.042260031E-01 -4.002397295E-02  8.746852103E+04  1.543960568E+02  3.330084766E+02  2.761553683E+02  2.363466475E+02  8.591631665E-01 
         3 -2.150271627E-02  1.045375264E-01 -3.708169353E-02  8.739046484E+04  1.549917473E+02  3.329624593E+02  2.760790558E+02  2.370025499E+02  8.584982394E-01 
         4 -2.072290556E-02  1.049359494E-01 -3.421635317E-02  8.726646997E+04  1.556700556E+02  3.328995028E+02  2.759746623E+02  2.377234166E+02  8.576920815E-01 
         5 -1.964621854E-02  1.053757771E-01 -3.145501365E-02  8.712235327E+04  1.564116235E+02  3.328257217E+02  2.758523679E+02  2.384863172E+02  8.567465711E-01 
         6 -1.833909717E-02  1.058829391E-01 -2.880182754E-02  8.699475610E+04  1.571325536E+02  3.327588205E+02  2.757415128E+02  2.393478727E+02  8.562935572E-01 
         7 -1.686396899E-02  1.064019756E-01 -2.624136390E-02  8.684675684E+04  1.579378252E+02  3.326773462E+02  2.756064711E+02  2.403089008E+02  8.557733465E-01 
         8 -1.524276490E-02  1.069101094E-01 -2.376908005E-02  8.664332251E+04  1.589355733E+02  3.325646052E+02  2.754197474E+02  2.414845896E+02  8.550044466E-01 
         9 -1.353040875E-02  1.074492491E-01 -2.136449246E-02  8.640939795E+04  1.601620047E+02  3.324339437E+02  2.752033937E+02  2.428001065E+02  8.535202956E-01 
        10 -1.175719847E-02  1.079385502E-01 -1.899452623E-02  8.617781421E+04  1.615541275E+02  3.323019011E+02  2.749848962E+02  2.440849106E+02  8.510663463E-01 
        11 -9.920451205E-03  1.084473482E-01 -1.667649769E-02  8.600189227E+04  1.628540605E+02  3.322137846E+02  2.748391188E+02  2.449247931E+02  8.475254211E-01 
        12 -8.053093039E-03  1.089314126E-01 -1.437870322E-02  8.612429678E+04  1.631961674E+02  3.323124480E+02  2.750021852E+02  2.446394507E+02  8.451805776E-01 
        13 -6.139911673E-03  1.093816015E-01 -1.211111235E-02  8.661035278E+04  1.627339096E+02  3.325631046E+02  2.754172082E+02  2.431954184E+02  8.432159070E-01 
        14 -4.213714023E-03  1.098625599E-01 -9.853315987E-03  8.749271533E+04  1.607439184E+02  3.330194416E+02  2.761736336E+02  2.406055403E+02  8.458282985E-01 
        15 -2.267252226E-03  1.102821410E-01 -7.616721013E-03  8.858540088E+04  1.565251656E+02  3.335914383E+02  2.771232290E+02  2.371343079E+02  8.578051031E-01 
        16 -3.058463972E-04  1.106716081E-01 -5.380345181E-03  8.946950293E+04  1.498978925E+02  3.340313959E+02  2.778547440E+02  2.343237062E+02  8.854758814E-01 
        17  1.649896870E-03  1.110991589E-01 -3.144821902E-03  8.722132178E+04  1.476504403E+02  3.328159881E+02  2.758387339E+02  2.441144714E+02  9.322903603E-01 
        18  3.605378217E-03  1.114680886E-01 -8.997268064E-04  7.562590259E+04  1.756968620E+02  3.263030486E+02  2.651487908E+02  2.868523130E+02  9.429223575E-01 
        19  5.548952344E-03  1.118349081E-01  1.356589372E-03  6.984577313E+04  2.087417954E+02  3.227522488E+02  2.594094338E+02  3.066751292E+02  8.444895009E-01 
        20  7.472030685E-03  1.121892539E-01  3.633809071E-03  7.289317117E+04  2.115637441E+02  3.247316310E+02  2.626031612E+02  2.979682541E+02  7.931538415E-01 
        21  9.366594022E-03  1.125505666E-01  5.932977735E-03  7.661913470E+04  2.086603963E+02  3.269260650E+02  2.661631389E+02  2.845646474E+02  7.556828321E-01 
        22  1.122147558E-02  1.129077905E-01  8.263617067E-03  7.896736588E+04  2.085861381E+02  3.283192434E+02  2.684351770E+02  2.767533918E+02  7.265795005E-01 
        23  1.303284284E-02  1.132507638E-01  1.062953057E-02  8.047505147E+04  2.114398243E+02  3.291722658E+02  2.698305634E+02  2.734198050E+02  7.002246660E-01 
        24  1.479928419E-02  1.136234762E-01  1.303021626E-02  8.161059099E+04  2.158891744E+02  3.298215704E+02  2.708960028E+02  2.699824575E+02  6.651935028E-01 
        25  1.649617427E-02  1.139938279E-01  1.547769530E-02  8.263768530E+04  2.207764692E+02  3.303915172E+02  2.718331571E+02  2.661049256E+02  6.262982665E-01 
        26  1.811807173E-02  1.143837002E-01  1.797032872E-02  8.336890063E+04  2.262415638E+02  3.307645483E+02  2.724470749E+02  2.633840146E+02  5.887752539E-01 
        27  1.968166241E-02  1.148013513E-01  2.049621310E-02  8.350376074E+04  2.331949515E+02  3.307938657E+02  2.724951375E+02  2.633165474E+02  5.531942430E-01 
        28  2.119101764E-02  1.152299366E-01  2.305322148E-02  8.300709716E+04  2.419305823E+02  3.304628566E+02  2.719500419E+02  2.657776204E+02  5.175242665E-01 
        29  2.266338778E-02  1.156643914E-01  2.563116057E-02  8.240471161E+04  2.505109090E+02  3.300778258E+02  2.713167446E+02  2.684992987E+02  4.836871014E-01 
        30  2.408077791E-02  1.161159634E-01  2.823658064E-02  8.189395477E+04  2.585884976E+02  3.297569430E+02  2.707893236E+02  2.711522179E+02  4.523762763E-01 
        31  2.544088325E-02  1.165921105E-01  3.086849856E-02  8.135480530E+04  2.667861671E+02  3.293839803E+02  2.701774046E+02  2.741827283E+02  4.221598264E-01 
        32  2.674433127E-02  1.170738851E-01  3.352942364E-02  8.078116638E+04  2.748744249E+02  3.290254850E+02  2.695896072E+02  2.772675135E+02  3.929548631E-01 
        33  2.797950643E-02  1.175445507E-01  3.622298897E-02  8.024629242E+04  2.826565078E+02  3.287502759E+02  2.691386309E+02  2.799323863E+02  3.638634414E-01 
        34  2.916313541E-02  1.180056499E-01  3.893937175E-02  7.995026076E+04  2.897650865E+02  3.286387050E+02  2.689560031E+02  2.816695938E+02  3.348213840E-01 
        35  3.031249539E-02  1.184785399E-01  4.167042727E-02  8.008044199E+04  2.953979894E+02  3.287885735E+02  2.692013338E+02  2.820854621E+02  3.085028190E-01 
        36  3.139929926E-02  1.189405785E-01  4.442941843E-02  8.035342368E+04  3.006452076E+02  3.290210024E+02  2.695819777E+02  2.820460780E+02  2.823035510E-01 
        37  3.242013936E-02  1.193808800E-01  4.721660669E-02  8.082818839E+04  3.057555444E+02  3.293146641E+02  2.700636531E+02  2.812249746E+02  2.534872671E-01 
        38  3.340677803E-02  1.198011670E-01  5.002067675E-02  8.198795645E+04  3.087054176E+02  3.299595611E+02  2.711226240E+02  2.781742480E+02  2.272091066E-01 
        39  3.430413654E-02  1.201853153E-01  5.285529857E-02  8.353853394E+04  3.104596443E+02  3.308286343E+02  2.725531464E+02  2.737381134E+02  2.016190728E-01 
        40  3.515433510E-02  1.205874318E-01  5.570324370E-02  8.545863428E+04  3.108608150E+02  3.318923607E+02  2.743092346E+02  2.680360394E+02  1.783401910E-01 
        41  3.592907297E-02  1.209644065E-01  5.857535950E-02  8.770224438E+04  3.097235970E+02  3.331125193E+02  2.763304133E+02  2.611959915E+02  1.590307173E-01 
        42  3.664355424E-02  1.213334730E-01  6.146049591E-02  9.012836292E+04  3.071299863E+02  3.343589468E+02  2.784022398E+02  2.537752762E+02  1.458035426E-01 
        43  3.727845098E-02  1.217084379E-01  6.437276718E-02  9.246396387E+04  3.036269646E+02  3.355427475E+02  2.803766050E+02  2.466682415E+02  1.395094348E-01 
        44  3.781448665E-02  1.220744111E-01  6.730672953E-02  9.440641187E+04  2.999774084E+02  3.365650940E+02  2.820871735E+02  2.407439904E+02  1.394521636E-01 
        45  3.826762164E-02  1.224563704E-01  7.025293559E-02  9.575951624E+04  2.970053318E+02  3.373187437E+02  2.833513143E+02  2.366509713E+02  1.433245736E-01 
        46  3.856443464E-02  1.228195695E-01  7.317567491E-02  9.650692188E+04  2.952130432E+02  3.377865601E+02  2.841377869E+02  2.346320419E+02  1.486745551E-01 
        47  3.882754171E-02  1.231963568E-01  7.616928387E-02  9.683363672E+04  2.934898157E+02  3.384432596E+02  2.852448021E+02  2.326916386E+02  1.543734213E-01 
        48  3.896508106E-02  1.235573809E-01  7.913505459E-02  9.689252930E+04  2.899846573E+02  3.393921051E+02  2.868558540E+02  2.269807167E+02  1.575350948E-01 
        49  3.903512947E-02  1.239238609E-01  8.213137167E-02  9.689164563E+04  2.815517755E+02  3.411273415E+02  2.898187087E+02  2.123109127E+02  1.632332834E-01 
        50  3.900153017E-02  1.243001337E-01  8.510504302E-02  9.683643790E+04  2.654589500E+02  3.442825997E+02  2.952215922E+02  1.841508956E+02  1.732108204E-01 
        51  3.889299026E-02  1.246700891E-01  8.806950082E-02  9.664906970E+04  2.466475337E+02  3.482709439E+02  3.021046410E+02  1.389328465E+02  1.670865123E-01 
        52  3.870303970E-02  1.250405990E-01  9.105247242E-02  9.655161279E+04  2.379861321E+02  3.511468592E+02  3.070824637E+02  9.723416770E+01  6.250031669E-02 
        53  3.847530202E-02  1.253810613E-01  9.402032493E-02  9.684686902E+04  2.344836222E+02  3.526342359E+02  3.096840422E+02  6.250838596E+01 -1.490976913E-01 
        54  3.809583015E-02  1.257752167E-01  9.695318516E-02  9.798295703E+04  2.328469582E+02  3.533609848E+02  3.109512253E+02  4.107510495E+01 -1.145793386E+00 
        55  3.767199372E-02  1.261489404E-01  9.992435767E-02  9.958091602E+04  2.427281227E+02  3.528686962E+02  3.100796375E+02  4.110753596E+01 -1.511051189E+00 
        56  3.723780727E-02  1.265196365E-01  1.028569506E-01  1.015920654E+05  2.510312430E+02  3.518451841E+02  3.082836950E+02  5.653980847E+01 -1.038287666E+00 
        57  3.672955052E-02  1.269046997E-01  1.057947981E-01  1.037204458E+05  2.431213286E+02  3.504625897E+02  3.058676200E+02  9.356510878E+01 -1.477576083E-01 
        58  3.615520807E-02  1.273091289E-01  1.087154776E-01  1.061182898E+05  2.402264438E+02  3.478396378E+02  3.013130894E+02  1.449375191E+02  2.052196818E-01 
        59  3.556812424E-02  1.277144368E-01  1.116309472E-01  1.076435548E+05  2.510566359E+02  3.451456437E+02  2.966593781E+02  1.774445617E+02  2.352517189E-01 
        60  3.495651588E-02  1.281329458E-01  1.145394580E-01  1.081297158E+05  2.602003756E+02  3.438319416E+02  2.943999181E+02  1.879731216E+02  2.100870516E-01 
        61  3.433795015E-02  1.285471243E-01  1.174457346E-01  1.081720275E+05  2.651516016E+02  3.433975277E+02  2.936550093E+02  1.921529248E+02  1.945115579E-01 
        62  3.376061330E-02  1.289460490E-01  1.203607660E-01  1.081083109E+05  2.682913322E+02  3.432127268E+02  2.933390040E+02  1.954704974E+02  1.881724335E-01 
        63  3.331803132E-02  1.293309423E-01  1.232882868E-01  1.080726060E+05  2.702689185E+02  3.431741883E+02  2.932730719E+02  1.979173256E+02  1.865088592E-01 
        64  3.310586596E-02  1.296649637E-01  1.262581306E-01  1.080110562E+05  2.716872931E+02  3.431813474E+02  2.932853138E+02  1.994112511E+02  1.850218885E-01 
        65  3.306639982E-02  1.299493947E-01  1.292495641E-01  1.078983823E+05  2.728609402E+02  3.431543139E+02  2.932390905E+02  2.005614720E+02  1.838284833E-01 
        66  3.322486525E-02  1.302097713E-01  1.322380794E-01  1.077132124E+05  2.739769635E+02  3.430640504E+02  2.930848466E+02  2.017006721E+02  1.831240606E-01 
        67  3.356462385E-02  1.304573038E-01  1.352130229E-01  1.074645838E+05  2.750406633E+02  3.429470354E+02  2.928850181E+02  2.029863206E+02  1.835965346E-01 
        68  3.400410102E-02  1.306751199E-01  1.381765647E-01  1.072057543E+05  2.761653409E+02  3.428262668E+02  2.926787813E+02  2.045126615E+02  1.844626309E-01 
        69  3.451963359E-02  1.308741206E-01  1.411278790E-01  1.069620956E+05  2.774372621E+02  3.427085900E+02  2.924778552E+02  2.062884119E+02  1.853929837E-01 
        70  3.508991352E-02  1.310576265E-01  1.440660380E-01  1.067012391E+05  2.787214262E+02  3.425879660E+02  2.922719836E+02  2.081621685E+02  1.866315862E-01 
        71  3.570211579E-02  1.312503676E-01  1.470000000E-01  1.063161494E+05  2.800995789E+02  3.424250641E+02  2.919941101E+02  2.102448692E+02  1.878005583E-01 
        72 -2.843361623E-02  1.708417341E-01 -4.258217492E-02  8.204483643E+04  1.836002941E+02  3.300064535E+02  2.711988001E+02  3.442091484E+02  1.008075677E+00 
        73 -2.838826984E-02  1.709653765E-01 -3.916427879E-02  8.204889331E+04  1.843369713E+02  3.299560635E+02  2.711160336E+02  3.448456254E+02  1.006748875E+00 
        74 -2.835908450E-02  1.711140563E-01 -3.574649433E-02  8.239006427E+04  1.837448792E+02  3.301759002E+02  2.714774981E+02  3.439239326E+02  1.007108217E+00 
        75 -2.838361088E-02  1.712589164E-01 -3.232950605E-02  8.297619702E+04  1.826298099E+02  3.305349197E+02  2.720683374E+02  3.419893751E+02  1.007521238E+00 
        76 -2.841360827E-02  1.714319125E-01 -2.891476756E-02  8.362139966E+04  1.818979831E+02  3.308866611E+02  2.726477718E+02  3.409631190E+02  1.008274375E+00 
        77 -2.833774301E-02  1.716334782E-01 -2.549995819E-02  8.414727383E+04  1.811668662E+02  3.311432316E+02  2.730707074E+02  3.399402047E+02  1.009053126E+00 
        78 -2.791452343E-02  1.719215161E-01 -2.212016887E-02  8.443913916E+04  1.801021547E+02  3.313134613E+02  2.733516026E+02  3.390976601E+02  1.011303589E+00 
        79 -2.700703325E-02  1.722886754E-01 -1.884820631E-02  8.429197363E+04  1.795482316E+02  3.312458754E+02  2.732401457E+02  3.394852228E+02  1.013897900E+00 
        80 -2.544395246E-02  1.727209334E-01 -1.584518523E-02  8.324259943E+04  1.809493238E+02  3.306698041E+02  2.722907794E+02  3.428591468E+02  1.015126774E+00 
        81 -2.351536464E-02  1.732363399E-01 -1.306823492E-02  8.136849451E+04  1.844096158E+02  3.296113091E+02  2.705509620E+02  3.482360300E+02  1.013150153E+00 
        82 -2.134527601E-02  1.737374909E-01 -1.047435973E-02  7.853987801E+04  1.911449295E+02  3.278964717E+02  2.677439179E+02  3.558856261E+02  1.004628252E+00 
        83 -1.897326710E-02  1.742189522E-01 -8.035177519E-03  7.538850772E+04  1.998062540E+02  3.259926196E+02  2.646434345E+02  3.660256174E+02  9.949407456E-01 
        84 -1.652827274E-02  1.746780172E-01 -5.688541800E-03  7.314690009E+04  2.067705779E+02  3.245779419E+02  2.623504143E+02  3.725501442E+02  9.843125893E-01 
        85 -1.397929867E-02  1.751251779E-01 -3.446989688E-03  7.261213525E+04  2.105359073E+02  3.242597365E+02  2.618359485E+02  3.747918749E+02  9.761651456E-01 
        86 -1.139011487E-02  1.755573757E-01 -1.256774906E-03  7.407207996E+04  2.090650387E+02  3.252309270E+02  2.634079442E+02  3.705555477E+02  9.723436870E-01 
        87 -8.734274343E-03  1.759085237E-01  8.667805443E-04  7.928352759E+04  2.022865530E+02  3.284235632E+02  2.686123953E+02  3.560105731E+02  9.669546708E-01 
        88 -6.073383534E-03  1.762548475E-01  2.984781313E-03  8.867679919E+04  1.912384040E+02  3.334967644E+02  2.769737916E+02  3.302093053E+02  9.613328073E-01 
        89 -3.359730182E-03  1.765819110E-01  5.053045394E-03  9.842330469E+04  1.738128588E+02  3.384860930E+02  2.853185501E+02  3.065849752E+02  9.898938583E-01 
        90 -6.741955509E-04  1.768270807E-01  7.130208361E-03  9.776479967E+04  1.646085621E+02  3.382397576E+02  2.849026103E+02  3.027917907E+02  1.018137917E+00 
        91  2.027043660E-03  1.770783858E-01  9.208570588E-03  7.888130476E+04  1.933068092E+02  3.279734912E+02  2.678745569E+02  3.602217052E+02  1.005747422E+00 
        92  4.731686997E-03  1.772422585E-01  1.127155269E-02  7.276816815E+04  2.143553950E+02  3.242354755E+02  2.617994143E+02  3.771520444E+02  9.678724629E-01 
        93  7.454465044E-03  1.773874983E-01  1.334309669E-02  7.320501080E+04  2.096349203E+02  3.245562103E+02  2.623168392E+02  3.724392315E+02  9.739807816E-01 
        94  1.015989937E-02  1.775222933E-01  1.545596277E-02  7.052943446E+04  2.171733058E+02  3.229160302E+02  2.596768145E+02  3.811726571E+02  9.666582519E-01 
        95  1.284858280E-02  1.775661421E-01  1.756817794E-02  6.709799057E+04  2.279699587E+02  3.206746763E+02  2.560845996E+02  3.921284833E+02  9.538584691E-01 
        96  1.551966693E-02  1.776138061E-01  1.970369132E-02  6.415184540E+04  2.364090559E+02  3.187274299E+02  2.529839973E+02  4.001638288E+02  9.435008047E-01 
        97  1.817410325E-02  1.776258069E-01  2.186017323E-02  6.178600281E+04  2.441888483E+02  3.171099319E+02  2.504221559E+02  4.064470372E+02  9.319171747E-01 
        98  2.080993586E-02  1.775631240E-01  2.403936301E-02  6.013591296E+04  2.525194755E+02  3.158318806E+02  2.484064879E+02  4.126767054E+02  9.184702653E-01 
        99  2.341570779E-02  1.774969016E-01  2.625394818E-02  5.970092505E+04  2.579603825E+02  3.155569506E+02  2.479743819E+02  4.147319775E+02  9.049575031E-01 
       100  2.600295182E-02  1.773818036E-01  2.848806157E-02  6.143928711E+04  2.595579433E+02  3.168477507E+02  2.500187836E+02  4.101361408E+02  8.891902119E-01 
       101  2.856627515E-02  1.771883875E-01  3.074502562E-02  6.675526563E+04  2.557594366E+02  3.204525824E+02  2.557844458E+02  3.955856190E+02  8.706872836E-01 
       102  3.110662233E-02  1.769811535E-01  3.302644514E-02  7.499499170E+04  2.470540962E+02  3.259508982E+02  2.646462183E+02  3.714580631E+02  8.499045447E-01 
       103  3.362247542E-02  1.767159818E-01  3.532849163E-02  8.170583411E+04  2.431957169E+02  3.300800695E+02  2.713428535E+02  3.536233263E+02  8.272621296E-01 
       104  3.610895472E-02  1.763647845E-01  3.765120331E-02  8.288694263E+04  2.477358360E+02  3.306634746E+02  2.722850170E+02  3.507068501E+02  8.064023629E-01 
       105  3.856497337E-02  1.759966372E-01  4.000321012E-02  8.026674652E+04  2.559151477E+02  3.292470443E+02  2.699562564E+02  3.578065473E+02  7.921434469E-01 
       106  4.103059304E-02  1.755360248E-01  4.234569910E-02  7.822106720E+04  2.634653174E+02  3.280997979E+02  2.680752404E+02  3.639837283E+02  7.780688043E-01 
       107  4.340106546E-02  1.750377176E-01  4.474435622E-02  7.911890530E+04  2.672784750E+02  3.285640684E+02  2.688367209E+02  3.617112508E+02  7.608909169E-01 
       108  4.575540032E-02  1.745445103E-01  4.717695363E-02  8.323947229E+04  2.654972396E+02  3.309649658E+02  2.727873733E+02  3.504150710E+02  7.460788386E-01 
       109  4.807037784E-02  1.739953488E-01  4.963532790E-02  8.939414624E+04  2.605198088E+02  3.343409777E+02  2.783815670E+02  3.332821045E+02  7.326785810E-01 
       110  5.034733117E-02  1.734133857E-01  5.212084081E-02  9.494821045E+04  2.577801285E+02  3.370920601E+02  2.829747181E+02  3.185908127E+02  7.174579091E-01 
       111  5.258765486E-02  1.728405975E-01  5.464144749E-02  9.859509082E+04  2.580674038E+02  3.387856998E+02  2.858221321E+02  3.090541286E+02  7.010642029E-01 
       112  5.479076840E-02  1.722430532E-01  5.718902978E-02  1.013775056E+05  2.582234831E+02  3.401114473E+02  2.880633678E+02  3.014443092E+02  6.887910776E-01 
       113  5.694737683E-02  1.716020731E-01  5.976586917E-02  1.045131567E+05  2.570244174E+02  3.416100576E+02  2.906073844E+02  2.929913104E+02  6.808051602E-01 
       114  5.911848447E-02  1.709340834E-01  6.233872565E-02  1.080692383E+05  2.556229084E+02  3.432649363E+02  2.934294282E+02  2.844037422E+02  6.737291412E-01 
       115  6.119351897E-02  1.703313828E-01  6.496775561E-02  1.109959412E+05  2.549607344E+02  3.446287737E+02  2.957653508E+02  2.774344087E+02  6.670274604E-01 
       116  6.319798910E-02  1.696485115E-01  6.765543605E-02  1.133316051E+05  2.547155786E+02  3.456842442E+02  2.975794001E+02  2.711259179E+02  6.597387297E-01 
       117  6.520189851E-02  1.689621155E-01  7.034628384E-02  1.153584302E+05  2.533867912E+02  3.466259909E+02  2.992028522E+02  2.648161697E+02  6.572746262E-01 
       118  6.717992039E-02  1.682884043E-01  7.305807409E-02  1.170704102E+05  2.520855656E+02  3.472689590E+02  3.003137531E+02  2.601011782E+02  6.571317688E-01 
       119  6.910755662E-02  1.675987334E-01  7.579818779E-02  1.184332529E+05  2.504121139E+02  3.477943008E+02  3.012229340E+02  2.564753180E+02  6.601513303E-01 
       120  7.101404689E-02  1.668389198E-01  7.852135391E-02  1.194408675E+05  2.482622226E+02  3.482185493E+02  3.019582884E+02  2.542633595E+02  6.664630370E-01 
