nodenumber     x-coordinate     y-coordinate     z-coordinate         pressure velocity-magnitude      sound-speed      temperature rel-velocity-magnitude relative-velocity-angle 
         1 -2.216901913E-02  1.039879580E-01 -4.300600202E-02  8.754888512E+04  1.539471070E+02  3.330500643E+02  2.762243134E+02  2.357962034E+02  8.594648996E-01 
         2 -2.197401757E-02  1.042260031E-01 -4.002397295E-02  8.746586887E+04  1.544300341E+02  3.330049640E+02  2.761494948E+02  2.363455286E+02  8.589497427E-01 
         3 -2.150271627E-02  1.045375264E-01 -3.708169353E-02  8.736190723E+04  1.550543578E+02  3.329482734E+02  2.760555069E+02  2.370194303E+02  8.581993957E-01 
         4 -2.072290556E-02  1.049359494E-01 -3.421635317E-02  8.724817358E+04  1.557418523E+02  3.328886781E+02  2.759566717E+02  2.377590477E+02  8.574052220E-01 
         5 -1.964621854E-02  1.053757771E-01 -3.145501365E-02  8.712626025E+04  1.564441509E+02  3.328262491E+02  2.758531880E+02  2.385154848E+02  8.566369303E-01 
         6 -1.833909717E-02  1.058829391E-01 -2.880182754E-02  8.697737109E+04  1.572212048E+02  3.327487965E+02  2.757248187E+02  2.394316754E+02  8.560698647E-01 
         7 -1.686396899E-02  1.064019756E-01 -2.624136390E-02  8.679840820E+04  1.580735140E+02  3.326538296E+02  2.755674820E+02  2.404490066E+02  8.554873578E-01 
         8 -1.524276490E-02  1.069101094E-01 -2.376908005E-02  8.658598645E+04  1.590648737E+02  3.325392108E+02  2.753776026E+02  2.415851512E+02  8.546069488E-01 
         9 -1.353040875E-02  1.074492491E-01 -2.136449246E-02  8.635682129E+04  1.602436254E+02  3.324148612E+02  2.751716516E+02  2.428511109E+02  8.532099836E-01 
        10 -1.175719847E-02  1.079385502E-01 -1.899452623E-02  8.617301678E+04  1.614741983E+02  3.323159521E+02  2.750079060E+02  2.439303632E+02  8.509180844E-01 
        11 -9.920451205E-03  1.084473482E-01 -1.667649769E-02  8.612148123E+04  1.625480146E+02  3.322894591E+02  2.749641200E+02  2.446301312E+02  8.481431121E-01 
        12 -8.053093039E-03  1.089314126E-01 -1.437870322E-02  8.628365350E+04  1.630663731E+02  3.323782125E+02  2.751110021E+02  2.443829346E+02  8.450290142E-01 
        13 -6.139911673E-03  1.093816015E-01 -1.211111235E-02  8.670820776E+04  1.626022563E+02  3.326062908E+02  2.754886594E+02  2.431300845E+02  8.437272832E-01 
        14 -4.213714023E-03  1.098625599E-01 -9.853315987E-03  8.743228809E+04  1.606568928E+02  3.329931755E+02  2.761300507E+02  2.407458420E+02  8.466772400E-01 
        15 -2.267252226E-03  1.102821410E-01 -7.616721013E-03  8.849699414E+04  1.565280066E+02  3.335617256E+02  2.770738974E+02  2.372401199E+02  8.580677621E-01 
        16 -3.058463972E-04  1.106716081E-01 -5.380345181E-03  8.949547168E+04  1.495380325E+02  3.340646725E+02  2.779101944E+02  2.341030927E+02  8.867641110E-01 
        17  1.649896870E-03  1.110991589E-01 -3.144821902E-03  8.730300220E+04  1.470648004E+02  3.328615198E+02  2.759133558E+02  2.436057377E+02  9.330264758E-01 
        18  3.605378217E-03  1.114680886E-01 -8.997268064E-04  7.611953918E+04  1.737284286E+02  3.265142064E+02  2.654899726E+02  2.843480749E+02  9.429908693E-01 
        19  5.548952344E-03  1.118349081E-01  1.356589372E-03  7.014375562E+04  2.075637797E+02  3.228967087E+02  2.596409254E+02  3.062060084E+02  8.488127328E-01 
        20  7.472030685E-03  1.121892539E-01  3.633809071E-03  7.263395462E+04  2.119887491E+02  3.245178907E+02  2.622572615E+02  2.980489649E+02  7.908472368E-01 
        21  9.366594022E-03  1.125505666E-01  5.932977735E-03  7.625969019E+04  2.087608980E+02  3.267081316E+02  2.658083572E+02  2.853397055E+02  7.577227582E-01 
        22  1.122147558E-02  1.129077905E-01  8.263617067E-03  7.870103536E+04  2.085670557E+02  3.280731153E+02  2.680324190E+02  2.768298315E+02  7.268723501E-01 
        23  1.303284284E-02  1.132507638E-01  1.062953057E-02  8.028346301E+04  2.112728800E+02  3.289180592E+02  2.694140489E+02  2.717538133E+02  6.946352567E-01 
        24  1.479928419E-02  1.136234762E-01  1.303021626E-02  8.145934401E+04  2.158192232E+02  3.295939270E+02  2.705224054E+02  2.682328063E+02  6.588054565E-01 
        25  1.649617427E-02  1.139938279E-01  1.547769530E-02  8.253283557E+04  2.207599592E+02  3.302154784E+02  2.715436668E+02  2.650808668E+02  6.224177917E-01 
        26  1.811807173E-02  1.143837002E-01  1.797032872E-02  8.334164258E+04  2.261192880E+02  3.306780305E+02  2.723043714E+02  2.629627447E+02  5.877868477E-01 
        27  1.968166241E-02  1.148013513E-01  2.049621310E-02  8.355068945E+04  2.329177434E+02  3.308152995E+02  2.725301445E+02  2.630962920E+02  5.538923400E-01 
        28  2.119101764E-02  1.152299366E-01  2.305322148E-02  8.307063219E+04  2.413613041E+02  3.306306277E+02  2.722259286E+02  2.654495072E+02  5.193368418E-01 
        29  2.266338778E-02  1.156643914E-01  2.563116057E-02  8.243262012E+04  2.502447056E+02  3.302923820E+02  2.716693417E+02  2.686288919E+02  4.855839489E-01 
        30  2.408077791E-02  1.161159634E-01  2.823658064E-02  8.186725073E+04  2.584808822E+02  3.300162513E+02  2.712152584E+02  2.714803579E+02  4.542608201E-01 
        31  2.544088325E-02  1.165921105E-01  3.086849856E-02  8.131308813E+04  2.666020334E+02  3.297087293E+02  2.707101915E+02  2.743865972E+02  4.240370300E-01 
        32  2.674433127E-02  1.170738851E-01  3.352942364E-02  8.075290613E+04  2.746076984E+02  3.294096236E+02  2.702194378E+02  2.773605659E+02  3.948623645E-01 
        33  2.797950643E-02  1.175445507E-01  3.622298897E-02  8.022643909E+04  2.824031017E+02  3.291779239E+02  2.698396548E+02  2.801334955E+02  3.660995305E-01 
        34  2.916313541E-02  1.180056499E-01  3.893937175E-02  7.993262642E+04  2.895934164E+02  3.290595138E+02  2.696459422E+02  2.820894005E+02  3.374158896E-01 
        35  3.031249539E-02  1.184785399E-01  4.167042727E-02  8.009836115E+04  2.953867403E+02  3.290892012E+02  2.696948709E+02  2.825643055E+02  3.104377965E-01 
        36  3.139929926E-02  1.189405785E-01  4.442941843E-02  8.041580884E+04  3.006759444E+02  3.292145901E+02  2.699002829E+02  2.824403010E+02  2.837054452E-01 
        37  3.242013936E-02  1.193808800E-01  4.721660669E-02  8.097382344E+04  3.057040559E+02  3.293552131E+02  2.701305807E+02  2.814673906E+02  2.547404134E-01 
        38  3.340677803E-02  1.198011670E-01  5.002067675E-02  8.219187625E+04  3.085557631E+02  3.299443990E+02  2.710977323E+02  2.781499140E+02  2.278752463E-01 
        39  3.430413654E-02  1.201853153E-01  5.285529857E-02  8.373999438E+04  3.102327347E+02  3.308764143E+02  2.726320419E+02  2.735373125E+02  2.020281749E-01 
        40  3.515433510E-02  1.205874318E-01  5.570324370E-02  8.560985010E+04  3.107224159E+02  3.319426956E+02  2.743922901E+02  2.678976498E+02  1.785003142E-01 
        41  3.592907297E-02  1.209644065E-01  5.857535950E-02  8.771842847E+04  3.098058519E+02  3.330926495E+02  2.762972603E+02  2.612744064E+02  1.588504827E-01 
        42  3.664355424E-02  1.213334730E-01  6.146049591E-02  8.995163562E+04  3.074985800E+02  3.342639241E+02  2.782437425E+02  2.541373901E+02  1.451362737E-01 
        43  3.727845098E-02  1.217084379E-01  6.437276718E-02  9.209993213E+04  3.043645267E+02  3.354012175E+02  2.801396646E+02  2.473089352E+02  1.377806971E-01 
        44  3.781448665E-02  1.220744111E-01  6.730672953E-02  9.390605273E+04  3.011159544E+02  3.363569088E+02  2.817380829E+02  2.416675572E+02  1.364640743E-01 
        45  3.826762164E-02  1.224563704E-01  7.025293559E-02  9.518048138E+04  2.983100126E+02  3.370670624E+02  2.829287262E+02  2.376170285E+02  1.394500005E-01 
        46  3.856443464E-02  1.228195695E-01  7.317567491E-02  9.593099219E+04  2.961338501E+02  3.375868225E+02  2.838016815E+02  2.349960632E+02  1.445012428E-01 
        47  3.882754171E-02  1.231963568E-01  7.616928387E-02  9.629193668E+04  2.945943508E+02  3.381811491E+02  2.848030970E+02  2.335363647E+02  1.510295355E-01 
        48  3.896508106E-02  1.235573809E-01  7.913505459E-02  9.640169531E+04  2.911398201E+02  3.391211853E+02  2.864009171E+02  2.283466682E+02  1.563489698E-01 
        49  3.903512947E-02  1.239238609E-01  8.213137167E-02  9.643188318E+04  2.828429890E+02  3.409146321E+02  2.894606316E+02  2.143620086E+02  1.630870295E-01 
        50  3.900153017E-02  1.243001337E-01  8.510504302E-02  9.632950250E+04  2.690510739E+02  3.437956440E+02  2.943859200E+02  1.890817825E+02  1.635845738E-01 
        51  3.889299026E-02  1.246700891E-01  8.806950082E-02  9.624986560E+04  2.531275468E+02  3.472776556E+02  3.003849716E+02  1.493571188E+02  1.437593867E-01 
        52  3.870303970E-02  1.250405990E-01  9.105247242E-02  9.631336499E+04  2.437715974E+02  3.501157608E+02  3.052881131E+02  1.122591156E+02  6.626102456E-02 
        53  3.847530202E-02  1.253810613E-01  9.402032493E-02  9.694521426E+04  2.416437161E+02  3.519494843E+02  3.084872851E+02  7.943648961E+01 -2.063627203E-01 
        54  3.809583015E-02  1.257752167E-01  9.695318516E-02  9.910017285E+04  2.400040779E+02  3.532463341E+02  3.107524986E+02  5.305022335E+01 -6.855412535E-01 
        55  3.767199372E-02  1.261489404E-01  9.992435767E-02  1.016683105E+05  2.394853964E+02  3.537960739E+02  3.117116761E+02  4.695857239E+01 -6.316116340E-01 
        56  3.723780727E-02  1.265196365E-01  1.028569506E-01  1.041418274E+05  2.375200139E+02  3.535953740E+02  3.113579009E+02  5.998534206E+01 -2.297055312E-01 
        57  3.672955052E-02  1.269046997E-01  1.057947981E-01  1.058255801E+05  2.377667263E+02  3.521324363E+02  3.087932153E+02  9.085919225E+01  1.227657974E-02 
        58  3.615520807E-02  1.273091289E-01  1.087154776E-01  1.069500842E+05  2.435007358E+02  3.495463352E+02  3.042808256E+02  1.307005796E+02  1.302432446E-01 
        59  3.556812424E-02  1.277144368E-01  1.116309472E-01  1.075956135E+05  2.538579934E+02  3.466185381E+02  2.992017999E+02  1.663851296E+02  1.790254251E-01 
        60  3.495651588E-02  1.281329458E-01  1.145394580E-01  1.077510686E+05  2.629742937E+02  3.443576341E+02  2.953041663E+02  1.880275259E+02  1.932859812E-01 
        61  3.433795015E-02  1.285471243E-01  1.174457346E-01  1.077146843E+05  2.680229933E+02  3.432249098E+02  2.933604388E+02  1.971674759E+02  1.944684053E-01 
        62  3.376061330E-02  1.289460490E-01  1.203607660E-01  1.077413323E+05  2.703846366E+02  3.429195087E+02  2.928379495E+02  2.000045340E+02  1.914038092E-01 
        63  3.331803132E-02  1.293309423E-01  1.232882868E-01  1.077939474E+05  2.718430313E+02  3.429270004E+02  2.928506536E+02  2.009004456E+02  1.874719546E-01 
        64  3.310586596E-02  1.296649637E-01  1.262581306E-01  1.077865836E+05  2.729460733E+02  3.429755707E+02  2.929336309E+02  2.013390592E+02  1.841730237E-01 
        65  3.306639982E-02  1.299493947E-01  1.292495641E-01  1.077144173E+05  2.738268199E+02  3.429994688E+02  2.929744925E+02  2.017676054E+02  1.822005132E-01 
        66  3.322486525E-02  1.302097713E-01  1.322380794E-01  1.075975668E+05  2.747339060E+02  3.429682864E+02  2.929211848E+02  2.025794027E+02  1.816201053E-01 
        67  3.356462385E-02  1.304573038E-01  1.352130229E-01  1.074575661E+05  2.756768702E+02  3.429103293E+02  2.928222000E+02  2.036847244E+02  1.822058021E-01 
        68  3.400410102E-02  1.306751199E-01  1.381765647E-01  1.072775840E+05  2.766241908E+02  3.428359032E+02  2.926951449E+02  2.049419031E+02  1.832067955E-01 
        69  3.451963359E-02  1.308741206E-01  1.411278790E-01  1.070401378E+05  2.776465552E+02  3.427409310E+02  2.925330012E+02  2.064268711E+02  1.846154337E-01 
        70  3.508991352E-02  1.310576265E-01  1.440660380E-01  1.067588521E+05  2.787863543E+02  3.426178508E+02  2.923229165E+02  2.080515258E+02  1.858394919E-01 
        71  3.570211579E-02  1.312503676E-01  1.470000000E-01  1.063209863E+05  2.801571083E+02  3.424407310E+02  2.920217094E+02  2.100909805E+02  1.869017556E-01 
        72 -2.843361623E-02  1.708417341E-01 -4.258217492E-02  8.203162134E+04  1.837723365E+02  3.299697380E+02  2.711384573E+02  3.443090057E+02  1.007643078E+00 
        73 -2.838826984E-02  1.709653765E-01 -3.916427879E-02  8.199434888E+04  1.842367013E+02  3.299524672E+02  2.711100640E+02  3.446424332E+02  1.006662040E+00 
        74 -2.835908450E-02  1.711140563E-01 -3.574649433E-02  8.231317804E+04  1.838591186E+02  3.301513050E+02  2.714370008E+02  3.437246664E+02  1.006300553E+00 
        75 -2.838361088E-02  1.712589164E-01 -3.232950605E-02  8.300539331E+04  1.829423585E+02  3.305340223E+02  2.720667505E+02  3.423358574E+02  1.006969944E+00 
        76 -2.841360827E-02  1.714319125E-01 -2.891476756E-02  8.385468555E+04  1.812384887E+02  3.310359468E+02  2.728935499E+02  3.399071355E+02  1.008537209E+00 
        77 -2.833774301E-02  1.716334782E-01 -2.549995819E-02  8.445646014E+04  1.801169834E+02  3.313544637E+02  2.734189130E+02  3.388199600E+02  1.010522473E+00 
        78 -2.791452343E-02  1.719215161E-01 -2.212016887E-02  8.462774854E+04  1.794538212E+02  3.314512997E+02  2.735787296E+02  3.384103031E+02  1.012146983E+00 
        79 -2.700703325E-02  1.722886754E-01 -1.884820631E-02  8.428143970E+04  1.795900426E+02  3.312425804E+02  2.732343740E+02  3.398393040E+02  1.014182378E+00 
        80 -2.544395246E-02  1.727209334E-01 -1.584518523E-02  8.311951672E+04  1.814206082E+02  3.305657201E+02  2.721190281E+02  3.432713852E+02  1.013965594E+00 
        81 -2.351536464E-02  1.732363399E-01 -1.306823492E-02  8.108817667E+04  1.854312811E+02  3.294074821E+02  2.702158636E+02  3.491217788E+02  1.010871385E+00 
        82 -2.134527601E-02  1.737374909E-01 -1.047435973E-02  7.832779439E+04  1.918204657E+02  3.277987112E+02  2.675832890E+02  3.570211825E+02  1.003995227E+00 
        83 -1.897326710E-02  1.742189522E-01 -8.035177519E-03  7.535870834E+04  1.997877384E+02  3.260076957E+02  2.646673409E+02  3.657163523E+02  9.940255592E-01 
        84 -1.652827274E-02  1.746780172E-01 -5.688541800E-03  7.308779730E+04  2.066461828E+02  3.246111822E+02  2.624041407E+02  3.724099236E+02  9.843531298E-01 
        85 -1.397929867E-02  1.751251779E-01 -3.446989688E-03  7.250662500E+04  2.098308601E+02  3.242298722E+02  2.617877316E+02  3.743659868E+02  9.775551464E-01 
        86 -1.139011487E-02  1.755573757E-01 -1.256774906E-03  7.420992761E+04  2.084927278E+02  3.253135691E+02  2.635421786E+02  3.701013536E+02  9.732420780E-01 
        87 -8.734274343E-03  1.759085237E-01  8.667805443E-04  7.952280139E+04  2.017575383E+02  3.286031854E+02  2.689042473E+02  3.554217832E+02  9.675140418E-01 
        88 -6.073383534E-03  1.762548475E-01  2.984781313E-03  8.890286920E+04  1.910105797E+02  3.337184978E+02  2.773414311E+02  3.295489123E+02  9.609254017E-01 
        89 -3.359730182E-03  1.765819110E-01  5.053045394E-03  9.855359412E+04  1.756166222E+02  3.384784775E+02  2.853053828E+02  3.041704233E+02  9.807717609E-01 
        90 -6.741955509E-04  1.768270807E-01  7.130208361E-03  9.823629385E+04  1.632521524E+02  3.386040053E+02  2.855159670E+02  3.058038535E+02  1.025569839E+00 
        91  2.027043660E-03  1.770783858E-01  9.208570588E-03  7.958792779E+04  1.910731075E+02  3.283412903E+02  2.684741892E+02  3.561600683E+02  1.005377189E+00 
        92  4.731686997E-03  1.772422585E-01  1.127155269E-02  7.215841533E+04  2.146428707E+02  3.239738141E+02  2.613757952E+02  3.771460999E+02  9.665981006E-01 
        93  7.454465044E-03  1.773874983E-01  1.334309669E-02  7.272109573E+04  2.111545519E+02  3.242394379E+02  2.618042157E+02  3.764101441E+02  9.767028934E-01 
        94  1.015989937E-02  1.775222933E-01  1.545596277E-02  7.044372523E+04  2.173304501E+02  3.229690901E+02  2.597605810E+02  3.826533737E+02  9.690693269E-01 
        95  1.284858280E-02  1.775661421E-01  1.756817794E-02  6.709566125E+04  2.276553161E+02  3.208567493E+02  2.563752705E+02  3.918946567E+02  9.543200824E-01 
        96  1.551966693E-02  1.776138061E-01  1.970369132E-02  6.410041760E+04  2.370383730E+02  3.187380087E+02  2.530013895E+02  4.007079639E+02  9.424864054E-01 
        97  1.817410325E-02  1.776258069E-01  2.186017323E-02  6.166348682E+04  2.456202266E+02  3.169130030E+02  2.501108990E+02  4.081805034E+02  9.307861887E-01 
        98  2.080993586E-02  1.775631240E-01  2.403936301E-02  6.006349133E+04  2.525972590E+02  3.157721968E+02  2.483100910E+02  4.129860945E+02  9.186114073E-01 
        99  2.341570779E-02  1.774969016E-01  2.625394818E-02  5.979684668E+04  2.572572260E+02  3.156336050E+02  2.480927405E+02  4.142825022E+02  9.059758037E-01 
       100  2.600295182E-02  1.773818036E-01  2.848806157E-02  6.187791260E+04  2.578572521E+02  3.171699753E+02  2.505319519E+02  4.086871777E+02  8.913412802E-01 
       101  2.856627515E-02  1.771883875E-01  3.074502562E-02  6.759139795E+04  2.523720169E+02  3.211419611E+02  2.568871889E+02  3.922495508E+02  8.742426783E-01 
       102  3.110662233E-02  1.769811535E-01  3.302644514E-02  7.558289990E+04  2.453207626E+02  3.262020054E+02  2.650416117E+02  3.699168549E+02  8.518694527E-01 
       103  3.362247542E-02  1.767159818E-01  3.532849163E-02  8.131300464E+04  2.438117929E+02  3.295321503E+02  2.704360409E+02  3.542169800E+02  8.259774745E-01 
       104  3.610895472E-02  1.763647845E-01  3.765120331E-02  8.177762195E+04  2.497461550E+02  3.297236514E+02  2.707387996E+02  3.533904424E+02  8.044379624E-01 
       105  3.856497337E-02  1.759966372E-01  4.000321012E-02  7.935670581E+04  2.583795134E+02  3.283648108E+02  2.685106838E+02  3.608249495E+02  7.893210347E-01 
       106  4.103059304E-02  1.755360248E-01  4.234569910E-02  7.786956257E+04  2.647773629E+02  3.276409013E+02  2.673252148E+02  3.652925115E+02  7.761525784E-01 
       107  4.340106546E-02  1.750377176E-01  4.474435622E-02  7.941104538E+04  2.667548339E+02  3.286778802E+02  2.690243692E+02  3.610997161E+02  7.615132446E-01 
       108  4.575540032E-02  1.745445103E-01  4.717695363E-02  8.413419800E+04  2.640048118E+02  3.314345455E+02  2.735630138E+02  3.482642093E+02  7.471784391E-01 
       109  4.807037784E-02  1.739953488E-01  4.963532790E-02  9.033208667E+04  2.594109173E+02  3.347620916E+02  2.790819454E+02  3.310468807E+02  7.325921468E-01 
       110  5.034733117E-02  1.734133857E-01  5.212084081E-02  9.516240381E+04  2.575881023E+02  3.372126007E+02  2.831754913E+02  3.177387238E+02  7.164907381E-01 
       111  5.258765486E-02  1.728405975E-01  5.464144749E-02  9.825180127E+04  2.586098366E+02  3.387019215E+02  2.856807003E+02  3.098883095E+02  7.003530040E-01 
       112  5.479076840E-02  1.722430532E-01  5.718902978E-02  1.011374978E+05  2.591191378E+02  3.401122684E+02  2.880649471E+02  3.027926092E+02  6.875823718E-01 
       113  5.694737683E-02  1.716020731E-01  5.976586917E-02  1.043443043E+05  2.584936745E+02  3.416796532E+02  2.907258534E+02  2.941191440E+02  6.769117238E-01 
       114  5.911848447E-02  1.709340834E-01  6.233872565E-02  1.074499097E+05  2.575056873E+02  3.431858830E+02  2.932938050E+02  2.861386122E+02  6.689556692E-01 
       115  6.119351897E-02  1.703313828E-01  6.496775561E-02  1.100499812E+05  2.568653469E+02  3.443473625E+02  2.952824087E+02  2.786138744E+02  6.612972040E-01 
       116  6.319798910E-02  1.696485115E-01  6.765543605E-02  1.124588763E+05  2.559518552E+02  3.453864694E+02  2.970668440E+02  2.715994635E+02  6.555360425E-01 
       117  6.520189851E-02  1.689621155E-01  7.034628384E-02  1.153113989E+05  2.539582376E+02  3.466233711E+02  2.991985378E+02  2.643755035E+02  6.544938870E-01 
       118  6.717992039E-02  1.682884043E-01  7.305807409E-02  1.175416182E+05  2.522842474E+02  3.475735712E+02  3.008408117E+02  2.586698322E+02  6.545907892E-01 
       119  6.910755662E-02  1.675987334E-01  7.579818779E-02  1.189664871E+05  2.512385175E+02  3.481247728E+02  3.017956388E+02  2.551352501E+02  6.552330540E-01 
       120  7.101404689E-02  1.668389198E-01  7.852135391E-02  1.200903123E+05  2.479314135E+02  3.486517687E+02  3.027100995E+02  2.517785748E+02  6.651630043E-01 
