nodenumber     x-coordinate     y-coordinate     z-coordinate         pressure velocity-magnitude      sound-speed      temperature rel-velocity-magnitude relative-velocity-angle 
         1 -2.216901913E-02  1.039879580E-01 -4.300600202E-02  8.754868036E+04  1.539286139E+02  3.330442777E+02  2.762147834E+02  2.358004647E+02  8.596398419E-01 
         2 -2.197401757E-02  1.042260031E-01 -4.002397295E-02  8.745150964E+04  1.548386800E+02  3.329636414E+02  2.760810089E+02  2.366391304E+02  8.577938166E-01 
         3 -2.150271627E-02  1.045375264E-01 -3.708169353E-02  8.735182867E+04  1.548828063E+02  3.329628267E+02  2.760796497E+02  2.368790442E+02  8.586501293E-01 
         4 -2.072290556E-02  1.049359494E-01 -3.421635317E-02  8.723911963E+04  1.553334646E+02  3.329258223E+02  2.760183477E+02  2.373431063E+02  8.583462313E-01 
         5 -1.964621854E-02  1.053757771E-01 -3.145501365E-02  8.710723169E+04  1.562962980E+02  3.328279266E+02  2.758561368E+02  2.385521293E+02  8.577267565E-01 
         6 -1.833909717E-02  1.058829391E-01 -2.880182754E-02  8.696650513E+04  1.571941533E+02  3.327401085E+02  2.757105751E+02  2.392612286E+02  8.557568006E-01 
         7 -1.686396899E-02  1.064019756E-01 -2.624136390E-02  8.677586768E+04  1.582796125E+02  3.326203070E+02  2.755119734E+02  2.406519594E+02  8.552952558E-01 
         8 -1.524276490E-02  1.069101094E-01 -2.376908005E-02  8.657486292E+04  1.589215863E+02  3.325387759E+02  2.753769159E+02  2.414661565E+02  8.550311606E-01 
         9 -1.353040875E-02  1.074492491E-01 -2.136449246E-02  8.637672766E+04  1.600914252E+02  3.324310122E+02  2.751984730E+02  2.426102505E+02  8.532099780E-01 
        10 -1.175719847E-02  1.079385502E-01 -1.899452623E-02  8.616284930E+04  1.614126098E+02  3.323117819E+02  2.750011289E+02  2.438593383E+02  8.510167133E-01 
        11 -9.920451205E-03  1.084473482E-01 -1.667649769E-02  8.609099615E+04  1.626046613E+02  3.322684915E+02  2.749294653E+02  2.447610201E+02  8.482839637E-01 
        12 -8.053093039E-03  1.089314126E-01 -1.437870322E-02  8.628080984E+04  1.632620302E+02  3.323542697E+02  2.750714165E+02  2.444840782E+02  8.442110219E-01 
        13 -6.139911673E-03  1.093816015E-01 -1.211111235E-02  8.676018555E+04  1.625829997E+02  3.326210651E+02  2.755132074E+02  2.432268271E+02  8.442537356E-01 
        14 -4.213714023E-03  1.098625599E-01 -9.853315987E-03  8.758871240E+04  1.600634737E+02  3.331044655E+02  2.763146534E+02  2.402753248E+02  8.484357893E-01 
        15 -2.267252226E-03  1.102821410E-01 -7.616721013E-03  8.860588232E+04  1.562446165E+02  3.336122437E+02  2.771579943E+02  2.370168447E+02  8.589864932E-01 
        16 -3.058463972E-04  1.106716081E-01 -5.380345181E-03  8.931410742E+04  1.499601207E+02  3.339559889E+02  2.777295151E+02  2.341725860E+02  8.846714292E-01 
        17  1.649896870E-03  1.110991589E-01 -3.144821902E-03  8.743058411E+04  1.459700491E+02  3.330234404E+02  2.761820774E+02  2.419896684E+02  9.357997989E-01 
        18  3.605378217E-03  1.114680886E-01 -8.997268064E-04  7.568047498E+04  1.771094453E+02  3.262109265E+02  2.649984775E+02  2.874654369E+02  9.383256361E-01 
        19  5.548952344E-03  1.118349081E-01  1.356589372E-03  6.993628406E+04  2.056200718E+02  3.230886090E+02  2.599493835E+02  3.029163435E+02  8.461097069E-01 
        20  7.472030685E-03  1.121892539E-01  3.633809071E-03  7.289540303E+04  2.095722868E+02  3.250053237E+02  2.630461503E+02  2.952355905E+02  7.917303182E-01 
        21  9.366594022E-03  1.125505666E-01  5.932977735E-03  7.662682874E+04  2.074435529E+02  3.272070897E+02  2.666215868E+02  2.839791255E+02  7.589933830E-01 
        22  1.122147558E-02  1.129077905E-01  8.263617067E-03  7.910943942E+04  2.073428988E+02  3.286282502E+02  2.689409480E+02  2.734020490E+02  7.208529344E-01 
        23  1.303284284E-02  1.132507638E-01  1.062953057E-02  8.067586524E+04  2.091120294E+02  3.295504371E+02  2.704517410E+02  2.683698869E+02  6.940549896E-01 
        24  1.479928419E-02  1.136234762E-01  1.303021626E-02  8.178489445E+04  2.137322184E+02  3.301318494E+02  2.714064949E+02  2.659760061E+02  6.621019528E-01 
        25  1.649617427E-02  1.139938279E-01  1.547769530E-02  8.275570966E+04  2.192547166E+02  3.305778260E+02  2.721400356E+02  2.635154390E+02  6.253647138E-01 
        26  1.811807173E-02  1.143837002E-01  1.797032872E-02  8.342216992E+04  2.249983196E+02  3.308697329E+02  2.726207609E+02  2.619229712E+02  5.904975440E-01 
        27  1.968166241E-02  1.148013513E-01  2.049621310E-02  8.350662579E+04  2.315503893E+02  3.309075682E+02  2.726829343E+02  2.619435024E+02  5.572538851E-01 
        28  2.119101764E-02  1.152299366E-01  2.305322148E-02  8.305714980E+04  2.402415138E+02  3.305761551E+02  2.721368415E+02  2.645047880E+02  5.224349851E-01 
        29  2.266338778E-02  1.156643914E-01  2.563116057E-02  8.249160864E+04  2.492999469E+02  3.301833417E+02  2.714907960E+02  2.681096945E+02  4.890036669E-01 
        30  2.408077791E-02  1.161159634E-01  2.823658064E-02  8.197991675E+04  2.572741630E+02  3.299565248E+02  2.711178634E+02  2.705360107E+02  4.571032654E-01 
        31  2.544088325E-02  1.165921105E-01  3.086849856E-02  8.140292920E+04  2.652456994E+02  3.296710439E+02  2.706490169E+02  2.727334194E+02  4.249777892E-01 
        32  2.674433127E-02  1.170738851E-01  3.352942364E-02  8.077908997E+04  2.740119164E+02  3.292186666E+02  2.699070241E+02  2.760734169E+02  3.932765047E-01 
        33  2.797950643E-02  1.175445507E-01  3.622298897E-02  8.021467969E+04  2.828200755E+02  3.287793489E+02  2.691870857E+02  2.798694618E+02  3.630536431E-01 
        34  2.916313541E-02  1.180056499E-01  3.893937175E-02  7.990048566E+04  2.899107630E+02  3.286836326E+02  2.690303619E+02  2.820594487E+02  3.356548260E-01 
        35  3.031249539E-02  1.184785399E-01  4.167042727E-02  7.997195120E+04  2.951438563E+02  3.289213743E+02  2.694193263E+02  2.822695990E+02  3.104011165E-01 
        36  3.139929926E-02  1.189405785E-01  4.442941843E-02  8.022066949E+04  3.011169859E+02  3.290733925E+02  2.696683519E+02  2.827569572E+02  2.824483385E-01 
        37  3.242013936E-02  1.193808800E-01  4.721660669E-02  8.079729888E+04  3.066737592E+02  3.293950070E+02  2.701961455E+02  2.821349224E+02  2.520683099E-01 
        38  3.340677803E-02  1.198011670E-01  5.002067675E-02  8.210800632E+04  3.096081717E+02  3.301849264E+02  2.714937570E+02  2.789967178E+02  2.254454094E-01 
        39  3.430413654E-02  1.201853153E-01  5.285529857E-02  8.384611890E+04  3.111144886E+02  3.311356831E+02  2.730596361E+02  2.742413864E+02  1.999046681E-01 
        40  3.515433510E-02  1.205874318E-01  5.570324370E-02  8.595683740E+04  3.110234356E+02  3.322658768E+02  2.749274197E+02  2.680894184E+02  1.774956649E-01 
        41  3.592907297E-02  1.209644065E-01  5.857535950E-02  8.832558130E+04  3.091430430E+02  3.335736580E+02  2.770963168E+02  2.607638183E+02  1.604071460E-01 
        42  3.664355424E-02  1.213334730E-01  6.146049591E-02  9.077698193E+04  3.058984189E+02  3.348323455E+02  2.791909490E+02  2.528189383E+02  1.489224266E-01 
        43  3.727845098E-02  1.217084379E-01  6.437276718E-02  9.304352954E+04  3.020754242E+02  3.358781500E+02  2.809369259E+02  2.453804560E+02  1.433905265E-01 
        44  3.781448665E-02  1.220744111E-01  6.730672953E-02  9.484256567E+04  2.983343372E+02  3.367195311E+02  2.823453417E+02  2.394114780E+02  1.438987679E-01 
        45  3.826762164E-02  1.224563704E-01  7.025293559E-02  9.601121124E+04  2.956509879E+02  3.372734849E+02  2.832747824E+02  2.357462704E+02  1.480067678E-01 
        46  3.856443464E-02  1.228195695E-01  7.317567491E-02  9.658904297E+04  2.936647263E+02  3.376625671E+02  2.839290161E+02  2.338427811E+02  1.551061384E-01 
        47  3.882754171E-02  1.231963568E-01  7.616928387E-02  9.674676529E+04  2.919384845E+02  3.382270633E+02  2.848808007E+02  2.319008125E+02  1.610202038E-01 
        48  3.896508106E-02  1.235573809E-01  7.913505459E-02  9.668019141E+04  2.871044312E+02  3.394493256E+02  2.869591866E+02  2.241774063E+02  1.666052677E-01 
        49  3.903512947E-02  1.239238609E-01  8.213137167E-02  9.658286682E+04  2.762816100E+02  3.417509966E+02  2.908898237E+02  2.050611248E+02  1.763838544E-01 
        50  3.900153017E-02  1.243001337E-01  8.510504302E-02  9.646939697E+04  2.581230433E+02  3.454244844E+02  2.971886509E+02  1.704149649E+02  1.845597192E-01 
        51  3.889299026E-02  1.246700891E-01  8.806950082E-02  9.613742523E+04  2.400193663E+02  3.493004789E+02  3.038822517E+02  1.230760281E+02  1.764950029E-01 
        52  3.870303970E-02  1.250405990E-01  9.105247242E-02  9.604018311E+04  2.337713432E+02  3.517048030E+02  3.080496860E+02  8.195916116E+01  4.154406820E-02 
        53  3.847530202E-02  1.253810613E-01  9.402032493E-02  9.651213562E+04  2.332212175E+02  3.527696280E+02  3.099136702E+02  4.853266254E+01 -3.722167374E-01 
        54  3.809583015E-02  1.257752167E-01  9.695318516E-02  9.681799902E+04  2.344034843E+02  3.527844086E+02  3.099337997E+02  4.116324186E+01 -1.632900164E+00 
        55  3.767199372E-02  1.261489404E-01  9.992435767E-02  9.809832959E+04  2.483674946E+02  3.524105005E+02  3.092741737E+02  4.826541018E+01 -1.989566006E+00 
        56  3.723780727E-02  1.265196365E-01  1.028569506E-01  9.971482275E+04  2.545154925E+02  3.514892384E+02  3.076607801E+02  6.852354522E+01 -1.091762518E+00 
        57  3.672955052E-02  1.269046997E-01  1.057947981E-01  1.011686639E+05  2.441270840E+02  3.498421535E+02  3.047830071E+02  1.109162467E+02 -3.962179413E-02 
        58  3.615520807E-02  1.273091289E-01  1.087154776E-01  1.034770176E+05  2.367279487E+02  3.475020590E+02  3.007217941E+02  1.502258606E+02  2.608071389E-01 
        59  3.556812424E-02  1.277144368E-01  1.116309472E-01  1.060248402E+05  2.433092594E+02  3.450030873E+02  2.964113092E+02  1.767701759E+02  2.860885980E-01 
        60  3.495651588E-02  1.281329458E-01  1.145394580E-01  1.076395557E+05  2.509277291E+02  3.438713288E+02  2.944675121E+02  1.855128336E+02  2.617634772E-01 
        61  3.433795015E-02  1.285471243E-01  1.174457346E-01  1.081889364E+05  2.591082180E+02  3.435421185E+02  2.939035444E+02  1.894725909E+02  2.238619998E-01 
        62  3.376061330E-02  1.289460490E-01  1.203607660E-01  1.081029125E+05  2.668051481E+02  3.433051634E+02  2.934982247E+02  1.930723608E+02  1.894575991E-01 
        63  3.331803132E-02  1.293309423E-01  1.232882868E-01  1.079797362E+05  2.696023824E+02  3.433252403E+02  2.935319443E+02  1.959611700E+02  1.841937282E-01 
        64  3.310586596E-02  1.296649637E-01  1.262581306E-01  1.079777899E+05  2.708591654E+02  3.431026213E+02  2.931514843E+02  1.972938764E+02  1.830519097E-01 
        65  3.306639982E-02  1.299493947E-01  1.292495641E-01  1.079744304E+05  2.710180541E+02  3.429568498E+02  2.929020211E+02  1.996333567E+02  1.919583317E-01 
        66  3.322486525E-02  1.302097713E-01  1.322380794E-01  1.078948122E+05  2.718624120E+02  3.428350298E+02  2.926938961E+02  2.013816594E+02  1.949287084E-01 
        67  3.356462385E-02  1.304573038E-01  1.352130229E-01  1.076834374E+05  2.729831494E+02  3.427739947E+02  2.925898318E+02  2.021819390E+02  1.932803711E-01 
        68  3.400410102E-02  1.306751199E-01  1.381765647E-01  1.073560298E+05  2.744065688E+02  3.427026320E+02  2.924679718E+02  2.029995880E+02  1.898553262E-01 
        69  3.451963359E-02  1.308741206E-01  1.411278790E-01  1.070443486E+05  2.759327087E+02  3.426303563E+02  2.923445046E+02  2.048480024E+02  1.895083084E-01 
        70  3.508991352E-02  1.310576265E-01  1.440660380E-01  1.067008433E+05  2.775900271E+02  3.425216269E+02  2.921589983E+02  2.072805371E+02  1.904337690E-01 
        71  3.570211579E-02  1.312503676E-01  1.470000000E-01  1.062959189E+05  2.793854485E+02  3.423324471E+02  2.918333015E+02  2.100020561E+02  1.913089529E-01 
        72 -2.843361623E-02  1.708417341E-01 -4.258217492E-02  8.208655786E+04  1.839953098E+02  3.299747505E+02  2.711467533E+02  3.445508976E+02  1.007414732E+00 
        73 -2.838826984E-02  1.709653765E-01 -3.916427879E-02  8.217200391E+04  1.836295614E+02  3.300708871E+02  2.713048720E+02  3.446454372E+02  1.008902064E+00 
        74 -2.835908450E-02  1.711140563E-01 -3.574649433E-02  8.237150519E+04  1.836418983E+02  3.301777680E+02  2.714806802E+02  3.426583922E+02  1.005471501E+00 
        75 -2.838361088E-02  1.712589164E-01 -3.232950605E-02  8.275254419E+04  1.837184558E+02  3.303248243E+02  2.717227802E+02  3.437007160E+02  1.007166274E+00 
        76 -2.841360827E-02  1.714319125E-01 -2.891476756E-02  8.321486096E+04  1.823930421E+02  3.306866217E+02  2.723181868E+02  3.413489552E+02  1.007510409E+00 
        77 -2.833774301E-02  1.716334782E-01 -2.549995819E-02  8.378609329E+04  1.810969928E+02  3.310220915E+02  2.728709723E+02  3.400181806E+02  1.009619053E+00 
        78 -2.791452343E-02  1.719215161E-01 -2.212016887E-02  8.423574121E+04  1.811558704E+02  3.311318359E+02  2.730520039E+02  3.390463848E+02  1.007852800E+00 
        79 -2.700703325E-02  1.722886754E-01 -1.884820631E-02  8.416629810E+04  1.801499286E+02  3.311466827E+02  2.730768461E+02  3.410208073E+02  1.014804732E+00 
        80 -2.544395246E-02  1.727209334E-01 -1.584518523E-02  8.323913538E+04  1.816286839E+02  3.306033578E+02  2.721813467E+02  3.437705646E+02  1.014677779E+00 
        81 -2.351536464E-02  1.732363399E-01 -1.306823492E-02  8.130822859E+04  1.850313794E+02  3.295279870E+02  2.704134420E+02  3.489493991E+02  1.012356520E+00 
        82 -2.134527601E-02  1.737374909E-01 -1.047435973E-02  7.875685017E+04  1.909267299E+02  3.280742447E+02  2.680344747E+02  3.545572050E+02  1.002700414E+00 
        83 -1.897326710E-02  1.742189522E-01 -8.035177519E-03  7.588093491E+04  1.973103188E+02  3.264355137E+02  2.653624065E+02  3.629288268E+02  9.971870780E-01 
        84 -1.652827274E-02  1.746780172E-01 -5.688541800E-03  7.357108521E+04  2.059028463E+02  3.247757363E+02  2.626727235E+02  3.700145960E+02  9.824920893E-01 
        85 -1.397929867E-02  1.751251779E-01 -3.446989688E-03  7.267694702E+04  2.091861067E+02  3.243122315E+02  2.619241366E+02  3.728755221E+02  9.772644937E-01 
        86 -1.139011487E-02  1.755573757E-01 -1.256774906E-03  7.350209937E+04  2.106495404E+02  3.247902541E+02  2.626977110E+02  3.715701404E+02  9.696159214E-01 
        87 -8.734274343E-03  1.759085237E-01  8.667805443E-04  7.808913458E+04  2.054288921E+02  3.276014092E+02  2.672688787E+02  3.597479174E+02  9.640817121E-01 
        88 -6.073383534E-03  1.762548475E-01  2.984781313E-03  8.821717426E+04  1.899860814E+02  3.334860632E+02  2.769562953E+02  3.311707895E+02  9.672722579E-01 
        89 -3.359730182E-03  1.765819110E-01  5.053045394E-03  9.755754498E+04  1.757531513E+02  3.380465422E+02  2.845778193E+02  3.059727116E+02  9.826249918E-01 
        90 -6.741955509E-04  1.768270807E-01  7.130208361E-03  9.700119067E+04  1.680344061E+02  3.376343523E+02  2.838839534E+02  3.105215411E+02  1.015631516E+00 
        91  2.027043660E-03  1.770783858E-01  9.208570588E-03  7.866028602E+04  1.945491860E+02  3.277670440E+02  2.675417878E+02  3.598242855E+02  1.001025125E+00 
        92  4.731686997E-03  1.772422585E-01  1.127155269E-02  7.393435928E+04  2.114108609E+02  3.249576265E+02  2.629666307E+02  3.733837869E+02  9.703553811E-01 
        93  7.454465044E-03  1.773874983E-01  1.334309669E-02  7.393723465E+04  2.075040604E+02  3.250935580E+02  2.631866634E+02  3.699957246E+02  9.766673762E-01 
        94  1.015989937E-02  1.775222933E-01  1.545596277E-02  7.087670024E+04  2.156014747E+02  3.232205311E+02  2.601681279E+02  3.789399249E+02  9.684158277E-01 
        95  1.284858280E-02  1.775661421E-01  1.756817794E-02  6.744229028E+04  2.270015913E+02  3.210016462E+02  2.566078209E+02  3.916375780E+02  9.571398557E-01 
        96  1.551966693E-02  1.776138061E-01  1.970369132E-02  6.443217206E+04  2.371686990E+02  3.188128521E+02  2.531251490E+02  4.015789590E+02  9.450318841E-01 
        97  1.817410325E-02  1.776258069E-01  2.186017323E-02  6.168879651E+04  2.447639163E+02  3.170160251E+02  2.502776713E+02  4.075507803E+02  9.333560700E-01 
        98  2.080993586E-02  1.775631240E-01  2.403936301E-02  5.971785559E+04  2.523705330E+02  3.156094193E+02  2.480604253E+02  4.122286835E+02  9.187592454E-01 
        99  2.341570779E-02  1.774969016E-01  2.625394818E-02  5.929799146E+04  2.578228917E+02  3.152527065E+02  2.475011210E+02  4.150831203E+02  9.065402988E-01 
       100  2.600295182E-02  1.773818036E-01  2.848806157E-02  6.105837622E+04  2.598932838E+02  3.165421610E+02  2.495402002E+02  4.112709455E+02  8.911116496E-01 
       101  2.856627515E-02  1.771883875E-01  3.074502562E-02  6.650619336E+04  2.557934990E+02  3.203694506E+02  2.556645899E+02  3.957022781E+02  8.718402386E-01 
       102  3.110662233E-02  1.769811535E-01  3.302644514E-02  7.496077856E+04  2.464223108E+02  3.260216818E+02  2.647618361E+02  3.711181145E+02  8.519551009E-01 
       103  3.362247542E-02  1.767159818E-01  3.532849163E-02  8.168241016E+04  2.427754226E+02  3.299749403E+02  2.711686540E+02  3.529035711E+02  8.281586356E-01 
       104  3.610895472E-02  1.763647845E-01  3.765120331E-02  8.303868652E+04  2.473214507E+02  3.307007847E+02  2.723493962E+02  3.503170795E+02  8.080953015E-01 
       105  3.856497337E-02  1.759966372E-01  4.000321012E-02  8.060524802E+04  2.560346628E+02  3.293678067E+02  2.701566215E+02  3.571091821E+02  7.911938541E-01 
       106  4.103059304E-02  1.755360248E-01  4.234569910E-02  7.837904062E+04  2.642152293E+02  3.280164908E+02  2.679408875E+02  3.635289461E+02  7.753126286E-01 
       107  4.340106546E-02  1.750377176E-01  4.474435622E-02  7.873172401E+04  2.679626445E+02  3.282712588E+02  2.683582390E+02  3.629301800E+02  7.613693271E-01 
       108  4.575540032E-02  1.745445103E-01  4.717695363E-02  8.214758826E+04  2.665605130E+02  3.303689303E+02  2.718043473E+02  3.523360195E+02  7.460848857E-01 
       109  4.807037784E-02  1.739953488E-01  4.963532790E-02  8.834185156E+04  2.617958384E+02  3.337842093E+02  2.774606676E+02  3.357868748E+02  7.329371404E-01 
       110  5.034733117E-02  1.734133857E-01  5.212084081E-02  9.492944287E+04  2.571237049E+02  3.373343697E+02  2.833869781E+02  3.164089985E+02  7.168316394E-01 
       111  5.258765486E-02  1.728405975E-01  5.464144749E-02  9.935524268E+04  2.570230770E+02  3.395192451E+02  2.870619106E+02  3.046196327E+02  6.982542984E-01 
       112  5.479076840E-02  1.722430532E-01  5.718902978E-02  1.021908872E+05  2.581669245E+02  3.407842293E+02  2.892039080E+02  2.999171047E+02  6.868405007E-01 
       113  5.694737683E-02  1.716020731E-01  5.976586917E-02  1.051363591E+05  2.578986049E+02  3.420565410E+02  2.913676746E+02  2.932755640E+02  6.780589274E-01 
       114  5.911848447E-02  1.709340834E-01  6.233872565E-02  1.084706294E+05  2.568354305E+02  3.434886702E+02  2.938124170E+02  2.844723836E+02  6.693189635E-01 
       115  6.119351897E-02  1.703313828E-01  6.496775561E-02  1.113217092E+05  2.553125601E+02  3.448296976E+02  2.961112404E+02  2.751348119E+02  6.629417110E-01 
       116  6.319798910E-02  1.696485115E-01  6.765543605E-02  1.135876060E+05  2.536261721E+02  3.459711466E+02  2.980738611E+02  2.685034847E+02  6.607957957E-01 
       117  6.520189851E-02  1.689621155E-01  7.034628384E-02  1.156747188E+05  2.528315277E+02  3.467896099E+02  2.994853973E+02  2.636693726E+02  6.581324134E-01 
       118  6.717992039E-02  1.682884043E-01  7.305807409E-02  1.174274321E+05  2.508085728E+02  3.475655556E+02  3.008270683E+02  2.597425756E+02  6.618335564E-01 
       119  6.910755662E-02  1.675987334E-01  7.579818779E-02  1.188253225E+05  2.497629604E+02  3.480523517E+02  3.016703625E+02  2.572248852E+02  6.635242244E-01 
       120  7.101404689E-02  1.668389198E-01  7.852135391E-02  1.197443973E+05  2.467639906E+02  3.485465221E+02  3.025275440E+02  2.540407994E+02  6.723781847E-01 
