nodenumber     x-coordinate     y-coordinate     z-coordinate         pressure velocity-magnitude      sound-speed      temperature rel-velocity-magnitude relative-velocity-angle 
         1 -2.216901913E-02  1.039879580E-01 -4.300600202E-02  8.755115767E+04  1.539489841E+02  3.330517334E+02  2.762271111E+02  2.357976674E+02  8.594603742E-01 
         2 -2.197401757E-02  1.042260031E-01 -4.002397295E-02  8.747087848E+04  1.544217919E+02  3.330090532E+02  2.761563147E+02  2.363360436E+02  8.589627743E-01 
         3 -2.150271627E-02  1.045375264E-01 -3.708169353E-02  8.736607947E+04  1.550442466E+02  3.329520144E+02  2.760617087E+02  2.370100805E+02  8.582201432E-01 
         4 -2.072290556E-02  1.049359494E-01 -3.421635317E-02  8.724588940E+04  1.557357831E+02  3.328886456E+02  2.759566283E+02  2.377398624E+02  8.573696287E-01 
         5 -1.964621854E-02  1.053757771E-01 -3.145501365E-02  8.711641113E+04  1.564465647E+02  3.328219566E+02  2.758460531E+02  2.385160961E+02  8.566283360E-01 
         6 -1.833909717E-02  1.058829391E-01 -2.880182754E-02  8.697129175E+04  1.572066908E+02  3.327467890E+02  2.757214990E+02  2.394169898E+02  8.561013937E-01 
         7 -1.686396899E-02  1.064019756E-01 -2.624136390E-02  8.682104639E+04  1.579867134E+02  3.326676760E+02  2.755903902E+02  2.403778334E+02  8.557237219E-01 
         8 -1.524276490E-02  1.069101094E-01 -2.376908005E-02  8.663801550E+04  1.589038165E+02  3.325685706E+02  2.754262428E+02  2.414506812E+02  8.550373074E-01 
         9 -1.353040875E-02  1.074492491E-01 -2.136449246E-02  8.639739172E+04  1.601054833E+02  3.324372373E+02  2.752087317E+02  2.427374456E+02  8.535747081E-01 
        10 -1.175719847E-02  1.079385502E-01 -1.899452623E-02  8.617598114E+04  1.614240968E+02  3.323153455E+02  2.750069776E+02  2.438876109E+02  8.510177182E-01 
        11 -9.920451205E-03  1.084473482E-01 -1.667649769E-02  8.607023706E+04  1.626668528E+02  3.322544786E+02  2.749062475E+02  2.447756916E+02  8.479690854E-01 
        12 -8.053093039E-03  1.089314126E-01 -1.437870322E-02  8.620186478E+04  1.632720014E+02  3.323253441E+02  2.750234803E+02  2.446721375E+02  8.449068745E-01 
        13 -6.139911673E-03  1.093816015E-01 -1.211111235E-02  8.668225000E+04  1.626787505E+02  3.325851583E+02  2.754537201E+02  2.433445606E+02  8.440494221E-01 
        14 -4.213714023E-03  1.098625599E-01 -9.853315987E-03  8.751686719E+04  1.605153217E+02  3.330412560E+02  2.762097816E+02  2.406287966E+02  8.470989987E-01 
        15 -2.267252226E-03  1.102821410E-01 -7.616721013E-03  8.855753662E+04  1.565195351E+02  3.335834999E+02  2.771099730E+02  2.371158953E+02  8.577509262E-01 
        16 -3.058463972E-04  1.106716081E-01 -5.380345181E-03  8.933825220E+04  1.499309244E+02  3.339919395E+02  2.777892370E+02  2.344188495E+02  8.856931850E-01 
        17  1.649896870E-03  1.110991589E-01 -3.144821902E-03  8.744914478E+04  1.468260016E+02  3.329856744E+02  2.761196346E+02  2.434326346E+02  9.344103225E-01 
        18  3.605378217E-03  1.114680886E-01 -8.997268064E-04  7.590880151E+04  1.740879502E+02  3.264404116E+02  2.653705177E+02  2.841230021E+02  9.402593728E-01 
        19  5.548952344E-03  1.118349081E-01  1.356589372E-03  6.997783441E+04  2.080821818E+02  3.228256016E+02  2.595279746E+02  3.064617517E+02  8.473918741E-01 
        20  7.472030685E-03  1.121892539E-01  3.633809071E-03  7.268269548E+04  2.119606945E+02  3.245306309E+02  2.622789581E+02  2.981187478E+02  7.914810535E-01 
        21  9.366594022E-03  1.125505666E-01  5.932977735E-03  7.630459564E+04  2.081252117E+02  3.268003361E+02  2.659581652E+02  2.852482440E+02  7.605846305E-01 
        22  1.122147558E-02  1.129077905E-01  8.263617067E-03  7.866376864E+04  2.087042819E+02  3.281801904E+02  2.682073758E+02  2.772008740E+02  7.275386511E-01 
        23  1.303284284E-02  1.132507638E-01  1.062953057E-02  8.028563008E+04  2.113300586E+02  3.290695625E+02  2.696623071E+02  2.716975946E+02  6.942509590E-01 
        24  1.479928419E-02  1.136234762E-01  1.303021626E-02  8.152939961E+04  2.156268820E+02  3.297239482E+02  2.707357780E+02  2.679247515E+02  6.588203381E-01 
        25  1.649617427E-02  1.139938279E-01  1.547769530E-02  8.262983289E+04  2.205414650E+02  3.302767560E+02  2.716442456E+02  2.648203192E+02  6.227128310E-01 
        26  1.811807173E-02  1.143837002E-01  1.797032872E-02  8.340505396E+04  2.260841055E+02  3.306419215E+02  2.722448621E+02  2.629426079E+02  5.879320325E-01 
        27  1.968166241E-02  1.148013513E-01  2.049621310E-02  8.354797681E+04  2.330789030E+02  3.306811209E+02  2.723093553E+02  2.632558336E+02  5.535867065E-01 
        28  2.119101764E-02  1.152299366E-01  2.305322148E-02  8.303623454E+04  2.417245026E+02  3.304189475E+02  2.718776393E+02  2.658053031E+02  5.186395585E-01 
        29  2.266338778E-02  1.156643914E-01  2.563116057E-02  8.241188947E+04  2.504489481E+02  3.301080294E+02  2.713661709E+02  2.687026870E+02  4.846920699E-01 
        30  2.408077791E-02  1.161159634E-01  2.823658064E-02  8.189669220E+04  2.584797163E+02  3.298853633E+02  2.710001271E+02  2.713198085E+02  4.535954460E-01 
        31  2.544088325E-02  1.165921105E-01  3.086849856E-02  8.136794250E+04  2.664918137E+02  3.296217046E+02  2.705672324E+02  2.742077260E+02  4.238765179E-01 
        32  2.674433127E-02  1.170738851E-01  3.352942364E-02  8.079124170E+04  2.744778597E+02  3.293245239E+02  2.700795245E+02  2.772263987E+02  3.949931874E-01 
        33  2.797950643E-02  1.175445507E-01  3.622298897E-02  8.022955270E+04  2.823305967E+02  3.290404350E+02  2.696136594E+02  2.800298513E+02  3.660949497E-01 
        34  2.916313541E-02  1.180056499E-01  3.893937175E-02  7.991196190E+04  2.896007521E+02  3.288685193E+02  2.693321899E+02  2.820122467E+02  3.371191735E-01 
        35  3.031249539E-02  1.184785399E-01  4.167042727E-02  8.006195813E+04  2.953526380E+02  3.289356961E+02  2.694425144E+02  2.824243761E+02  3.100909666E-01 
        36  3.139929926E-02  1.189405785E-01  4.442941843E-02  8.036792795E+04  3.005844290E+02  3.291194416E+02  2.697436174E+02  2.822320105E+02  2.833754486E-01 
        37  3.242013936E-02  1.193808800E-01  4.721660669E-02  8.089129855E+04  3.056601609E+02  3.293164246E+02  2.700667039E+02  2.812880692E+02  2.542618640E-01 
        38  3.340677803E-02  1.198011670E-01  5.002067675E-02  8.207980511E+04  3.085366093E+02  3.299233977E+02  2.710631948E+02  2.781202844E+02  2.278656666E-01 
        39  3.430413654E-02  1.201853153E-01  5.285529857E-02  8.360862427E+04  3.103101578E+02  3.308182287E+02  2.725361004E+02  2.736519537E+02  2.020750940E-01 
        40  3.515433510E-02  1.205874318E-01  5.570324370E-02  8.547556201E+04  3.108165970E+02  3.318794193E+02  2.742877121E+02  2.680424671E+02  1.785851466E-01 
        41  3.592907297E-02  1.209644065E-01  5.857535950E-02  8.760928613E+04  3.099749041E+02  3.330406551E+02  2.762109251E+02  2.614955482E+02  1.588105545E-01 
        42  3.664355424E-02  1.213334730E-01  6.146049591E-02  8.989635168E+04  3.076710043E+02  3.342285490E+02  2.781849246E+02  2.543378668E+02  1.449895699E-01 
        43  3.727845098E-02  1.217084379E-01  6.437276718E-02  9.211543799E+04  3.043230228E+02  3.354045658E+02  2.801456070E+02  2.473324909E+02  1.381510696E-01 
        44  3.781448665E-02  1.220744111E-01  6.730672953E-02  9.399577710E+04  3.007703915E+02  3.364279222E+02  2.818571091E+02  2.414062881E+02  1.374212089E-01 
        45  3.826762164E-02  1.224563704E-01  7.025293559E-02  9.533780664E+04  2.980193598E+02  3.371466825E+02  2.830624003E+02  2.374930871E+02  1.406711354E-01 
        46  3.856443464E-02  1.228195695E-01  7.317567491E-02  9.611540234E+04  2.957807388E+02  3.376621399E+02  2.839285889E+02  2.349172516E+02  1.463604420E-01 
        47  3.882754171E-02  1.231963568E-01  7.616928387E-02  9.652224329E+04  2.936355379E+02  3.383276267E+02  2.850499820E+02  2.326022890E+02  1.529962926E-01 
        48  3.896508106E-02  1.235573809E-01  7.913505459E-02  9.665876563E+04  2.901415520E+02  3.392666702E+02  2.866457863E+02  2.272912521E+02  1.580555700E-01 
        49  3.903512947E-02  1.239238609E-01  8.213137167E-02  9.662716467E+04  2.818798468E+02  3.410695293E+02  2.897242947E+02  2.134552754E+02  1.666730442E-01 
        50  3.900153017E-02  1.243001337E-01  8.510504302E-02  9.647000671E+04  2.673521399E+02  3.440868977E+02  2.948878915E+02  1.873320620E+02  1.720709009E-01 
        51  3.889299026E-02  1.246700891E-01  8.806950082E-02  9.635031970E+04  2.514474213E+02  3.475761745E+02  3.009015851E+02  1.464975681E+02  1.508603661E-01 
        52  3.870303970E-02  1.250405990E-01  9.105247242E-02  9.642569360E+04  2.424928041E+02  3.503874536E+02  3.057611804E+02  1.083128400E+02  6.681783545E-02 
        53  3.847530202E-02  1.253810613E-01  9.402032493E-02  9.677156815E+04  2.402361877E+02  3.520212997E+02  3.086135311E+02  7.516243230E+01 -1.940364231E-01 
        54  3.809583015E-02  1.257752167E-01  9.695318516E-02  9.846585840E+04  2.411597214E+02  3.529912872E+02  3.103034363E+02  5.040403366E+01 -8.424454778E-01 
        55  3.767199372E-02  1.261489404E-01  9.992435767E-02  1.008432273E+05  2.417273088E+02  3.533770723E+02  3.109735942E+02  4.323148310E+01 -9.413657859E-01 
        56  3.723780727E-02  1.265196365E-01  1.028569506E-01  1.036651678E+05  2.379917919E+02  3.530955033E+02  3.104794755E+02  5.852391484E+01 -3.290887792E-01 
        57  3.672955052E-02  1.269046997E-01  1.057947981E-01  1.058954327E+05  2.379426544E+02  3.518000026E+02  3.082118235E+02  9.403761339E+01  1.777816727E-02 
        58  3.615520807E-02  1.273091289E-01  1.087154776E-01  1.072045356E+05  2.445142083E+02  3.493187590E+02  3.038852377E+02  1.362150722E+02  1.406381810E-01 
        59  3.556812424E-02  1.277144368E-01  1.116309472E-01  1.077471056E+05  2.544836917E+02  3.464367735E+02  2.988871648E+02  1.706876416E+02  1.891679602E-01 
        60  3.495651588E-02  1.281329458E-01  1.145394580E-01  1.079724160E+05  2.629212775E+02  3.443421187E+02  2.952764926E+02  1.898366704E+02  1.996727153E-01 
        61  3.433795015E-02  1.285471243E-01  1.174457346E-01  1.080354471E+05  2.676763959E+02  3.433464432E+02  2.935680585E+02  1.972305691E+02  1.967662785E-01 
        62  3.376061330E-02  1.289460490E-01  1.203607660E-01  1.079972173E+05  2.699353878E+02  3.430297172E+02  2.930261886E+02  1.993074274E+02  1.916632303E-01 
        63  3.331803132E-02  1.293309423E-01  1.232882868E-01  1.079542013E+05  2.715588949E+02  3.429896435E+02  2.929577004E+02  2.003069341E+02  1.870817117E-01 
        64  3.310586596E-02  1.296649637E-01  1.262581306E-01  1.078803555E+05  2.729267263E+02  3.430053287E+02  2.929845109E+02  2.010274146E+02  1.831686441E-01 
        65  3.306639982E-02  1.299493947E-01  1.292495641E-01  1.077148885E+05  2.738938709E+02  3.429850183E+02  2.929498066E+02  2.015410668E+02  1.809752274E-01 
        66  3.322486525E-02  1.302097713E-01  1.322380794E-01  1.075439129E+05  2.747186092E+02  3.429420070E+02  2.928763880E+02  2.022780766E+02  1.806325636E-01 
        67  3.356462385E-02  1.304573038E-01  1.352130229E-01  1.073846937E+05  2.756770216E+02  3.428820389E+02  2.927739468E+02  2.034757532E+02  1.814577277E-01 
        68  3.400410102E-02  1.306751199E-01  1.381765647E-01  1.071822164E+05  2.767631080E+02  3.427849822E+02  2.926081910E+02  2.049294875E+02  1.823212930E-01 
        69  3.451963359E-02  1.308741206E-01  1.411278790E-01  1.069333737E+05  2.778109696E+02  3.426807427E+02  2.924302287E+02  2.064304576E+02  1.836390989E-01 
        70  3.508991352E-02  1.310576265E-01  1.440660380E-01  1.066601727E+05  2.788426678E+02  3.425677967E+02  2.922375429E+02  2.080860863E+02  1.856265638E-01 
        71  3.570211579E-02  1.312503676E-01  1.470000000E-01  1.063200449E+05  2.800657196E+02  3.424295502E+02  2.920023727E+02  2.099714050E+02  1.870226879E-01 
        72 -2.843361623E-02  1.708417341E-01 -4.258217492E-02  8.202578247E+04  1.837142572E+02  3.299730349E+02  2.711438379E+02  3.441693916E+02  1.007590104E+00 
        73 -2.838826984E-02  1.709653765E-01 -3.916427879E-02  8.200107086E+04  1.843296559E+02  3.299412248E+02  2.710916588E+02  3.447534008E+02  1.006549485E+00 
        74 -2.835908450E-02  1.711140563E-01 -3.574649433E-02  8.232765076E+04  1.838085698E+02  3.301547079E+02  2.714426086E+02  3.438463836E+02  1.006696017E+00 
        75 -2.838361088E-02  1.712589164E-01 -3.232950605E-02  8.299799390E+04  1.828628054E+02  3.305326967E+02  2.720645514E+02  3.422146797E+02  1.007019419E+00 
        76 -2.841360827E-02  1.714319125E-01 -2.891476756E-02  8.383477380E+04  1.813722401E+02  3.310072560E+02  2.728463163E+02  3.401693273E+02  1.008561697E+00 
        77 -2.833774301E-02  1.716334782E-01 -2.549995819E-02  8.437702676E+04  1.803988772E+02  3.313049446E+02  2.733371984E+02  3.389296205E+02  1.009763783E+00 
        78 -2.791452343E-02  1.719215161E-01 -2.212016887E-02  8.452831006E+04  1.798316107E+02  3.313773861E+02  2.734567041E+02  3.389319229E+02  1.011752844E+00 
        79 -2.700703325E-02  1.722886754E-01 -1.884820631E-02  8.424203931E+04  1.797608075E+02  3.312299633E+02  2.732135696E+02  3.395469503E+02  1.013124093E+00 
        80 -2.544395246E-02  1.727209334E-01 -1.584518523E-02  8.313665485E+04  1.814356081E+02  3.306000028E+02  2.721755621E+02  3.431341553E+02  1.013693145E+00 
        81 -2.351536464E-02  1.732363399E-01 -1.306823492E-02  8.118230020E+04  1.851473223E+02  3.294769918E+02  2.703299055E+02  3.492484686E+02  1.012094073E+00 
        82 -2.134527601E-02  1.737374909E-01 -1.047435973E-02  7.852741747E+04  1.912796130E+02  3.278880831E+02  2.677294237E+02  3.565350897E+02  1.004989979E+00 
        83 -1.897326710E-02  1.742189522E-01 -8.035177519E-03  7.555854837E+04  1.990944921E+02  3.260949975E+02  2.648094732E+02  3.651988037E+02  9.955558991E-01 
        84 -1.652827274E-02  1.746780172E-01 -5.688541800E-03  7.308549109E+04  2.070556421E+02  3.245169544E+02  2.622526021E+02  3.728025432E+02  9.841369530E-01 
        85 -1.397929867E-02  1.751251779E-01 -3.446989688E-03  7.243354858E+04  2.103124089E+02  3.241437988E+02  2.616496768E+02  3.745001011E+02  9.765596613E-01 
        86 -1.139011487E-02  1.755573757E-01 -1.256774906E-03  7.406378259E+04  2.090544219E+02  3.252032347E+02  2.633657484E+02  3.700572281E+02  9.716948513E-01 
        87 -8.734274343E-03  1.759085237E-01  8.667805443E-04  7.948433026E+04  2.033687652E+02  3.283733938E+02  2.685313442E+02  3.561304579E+02  9.642650941E-01 
        88 -6.073383534E-03  1.762548475E-01  2.984781313E-03  8.877205212E+04  1.911740752E+02  3.336109765E+02  2.771623704E+02  3.312919226E+02  9.632453467E-01 
        89 -3.359730182E-03  1.765819110E-01  5.053045394E-03  9.837806421E+04  1.759719434E+02  3.384360640E+02  2.852335806E+02  3.040864270E+02  9.793636575E-01 
        90 -6.741955509E-04  1.768270807E-01  7.130208361E-03  9.840169875E+04  1.632437851E+02  3.386693531E+02  2.856267923E+02  3.074039141E+02  1.027873156E+00 
        91  2.027043660E-03  1.770783858E-01  9.208570588E-03  7.914646423E+04  1.933682232E+02  3.278630772E+02  2.676942426E+02  3.563442399E+02  9.987802390E-01 
        92  4.731686997E-03  1.772422585E-01  1.127155269E-02  7.221556967E+04  2.142096033E+02  3.241050132E+02  2.615887125E+02  3.761007848E+02  9.660604445E-01 
        93  7.454465044E-03  1.773874983E-01  1.334309669E-02  7.293840536E+04  2.096793458E+02  3.244613211E+02  2.621636961E+02  3.745351946E+02  9.780541803E-01 
        94  1.015989937E-02  1.775222933E-01  1.545596277E-02  7.046660019E+04  2.172680542E+02  3.228226040E+02  2.595261734E+02  3.812268832E+02  9.664694394E-01 
        95  1.284858280E-02  1.775661421E-01  1.756817794E-02  6.707579865E+04  2.283614684E+02  3.206032118E+02  2.559705625E+02  3.920588553E+02  9.524297421E-01 
        96  1.551966693E-02  1.776138061E-01  1.970369132E-02  6.417157172E+04  2.377652264E+02  3.186251006E+02  2.528213634E+02  4.012532029E+02  9.413188156E-01 
        97  1.817410325E-02  1.776258069E-01  2.186017323E-02  6.178874377E+04  2.455806878E+02  3.170606461E+02  2.503432031E+02  4.082223806E+02  9.310476957E-01 
        98  2.080993586E-02  1.775631240E-01  2.403936301E-02  6.015610474E+04  2.523582559E+02  3.159897799E+02  2.486527147E+02  4.128750200E+02  9.191463087E-01 
        99  2.341570779E-02  1.774969016E-01  2.625394818E-02  5.982932275E+04  2.570969181E+02  3.157637978E+02  2.482974463E+02  4.140163012E+02  9.058721773E-01 
       100  2.600295182E-02  1.773818036E-01  2.848806157E-02  6.173118555E+04  2.579410210E+02  3.171225843E+02  2.504548187E+02  4.089546776E+02  8.915488906E-01 
       101  2.856627515E-02  1.771883875E-01  3.074502562E-02  6.724481274E+04  2.530568800E+02  3.209175844E+02  2.565271225E+02  3.932197399E+02  8.739775829E-01 
       102  3.110662233E-02  1.769811535E-01  3.302644514E-02  7.531648950E+04  2.455170555E+02  3.261794338E+02  2.650096750E+02  3.702120686E+02  8.518053982E-01 
       103  3.362247542E-02  1.767159818E-01  3.532849163E-02  8.149251221E+04  2.430546427E+02  3.299155893E+02  2.710684676E+02  3.532334700E+02  8.267921209E-01 
       104  3.610895472E-02  1.763647845E-01  3.765120331E-02  8.231512402E+04  2.488963728E+02  3.301865168E+02  2.715004740E+02  3.521388750E+02  8.052025167E-01 
       105  3.856497337E-02  1.759966372E-01  4.000321012E-02  7.983848172E+04  2.577408586E+02  3.286029679E+02  2.689015478E+02  3.603662703E+02  7.906410741E-01 
       106  4.103059304E-02  1.755360248E-01  4.234569910E-02  7.808552171E+04  2.637336196E+02  3.277342810E+02  2.674777087E+02  3.647254574E+02  7.785383832E-01 
       107  4.340106546E-02  1.750377176E-01  4.474435622E-02  7.931768283E+04  2.658112796E+02  3.285636054E+02  2.688361097E+02  3.606245902E+02  7.637743149E-01 
       108  4.575540032E-02  1.745445103E-01  4.717695363E-02  8.377680920E+04  2.639237564E+02  3.310625815E+02  2.729484615E+02  3.488629823E+02  7.485516118E-01 
       109  4.807037784E-02  1.739953488E-01  4.963532790E-02  8.997302100E+04  2.597552023E+02  3.344022112E+02  2.784827089E+02  3.323563890E+02  7.336643543E-01 
       110  5.034733117E-02  1.734133857E-01  5.212084081E-02  9.518116016E+04  2.579636059E+02  3.370882092E+02  2.829678078E+02  3.187420616E+02  7.168811783E-01 
       111  5.258765486E-02  1.728405975E-01  5.464144749E-02  9.843909326E+04  2.586867867E+02  3.388019028E+02  2.858496037E+02  3.102065201E+02  7.005969882E-01 
       112  5.479076840E-02  1.722430532E-01  5.718902978E-02  1.011291970E+05  2.589997549E+02  3.402050858E+02  2.882220592E+02  3.029815655E+02  6.882827897E-01 
       113  5.694737683E-02  1.716020731E-01  5.976586917E-02  1.041742231E+05  2.584319360E+02  3.416088884E+02  2.906048868E+02  2.941935377E+02  6.772761596E-01 
       114  5.911848447E-02  1.709340834E-01  6.233872565E-02  1.073547129E+05  2.574630912E+02  3.430078685E+02  2.929898430E+02  2.856068422E+02  6.684077733E-01 
       115  6.119351897E-02  1.703313828E-01  6.496775561E-02  1.102715049E+05  2.561375546E+02  3.443516884E+02  2.952901282E+02  2.779625850E+02  6.632691715E-01 
       116  6.319798910E-02  1.696485115E-01  6.765543605E-02  1.131580533E+05  2.544770269E+02  3.456763544E+02  2.975660858E+02  2.703302627E+02  6.597422482E-01 
       117  6.520189851E-02  1.689621155E-01  7.034628384E-02  1.156951021E+05  2.532282524E+02  3.467830572E+02  2.994740572E+02  2.639195299E+02  6.568443999E-01 
       118  6.717992039E-02  1.682884043E-01  7.305807409E-02  1.172782212E+05  2.523419857E+02  3.474450102E+02  3.006182489E+02  2.597769833E+02  6.556482017E-01 
       119  6.910755662E-02  1.675987334E-01  7.579818779E-02  1.189350231E+05  2.509182920E+02  3.480737147E+02  3.017071300E+02  2.561159432E+02  6.576672369E-01 
       120  7.101404689E-02  1.668389198E-01  7.852135391E-02  1.199035391E+05  2.482938846E+02  3.485297816E+02  3.024983594E+02  2.531571364E+02  6.651494582E-01 
