nodenumber     x-coordinate     y-coordinate     z-coordinate         pressure velocity-magnitude      sound-speed      temperature rel-velocity-magnitude relative-velocity-angle 
         1 -2.216901913E-02  1.039879580E-01 -4.300600202E-02  8.757093068E+04  1.535176993E+02  3.330900635E+02  2.762906864E+02  2.353054464E+02  8.601442955E-01 
         2 -2.197401757E-02  1.042260031E-01 -4.002397295E-02  8.748938947E+04  1.544831760E+02  3.330099360E+02  2.761578096E+02  2.364815193E+02  8.592077694E-01 
         3 -2.150271627E-02  1.045375264E-01 -3.708169353E-02  8.737395068E+04  1.550566418E+02  3.329538732E+02  2.760648634E+02  2.370394146E+02  8.583412445E-01 
         4 -2.072290556E-02  1.049359494E-01 -3.421635317E-02  8.723514661E+04  1.557252970E+02  3.328878198E+02  2.759553728E+02  2.375104356E+02  8.567109127E-01 
         5 -1.964621854E-02  1.053757771E-01 -3.145501365E-02  8.711058911E+04  1.563643899E+02  3.328281965E+02  2.758565388E+02  2.384171886E+02  8.568831813E-01 
         6 -1.833909717E-02  1.058829391E-01 -2.880182754E-02  8.697419678E+04  1.573147826E+02  3.327360506E+02  2.757038116E+02  2.395880008E+02  8.562309369E-01 
         7 -1.686396899E-02  1.064019756E-01 -2.624136390E-02  8.679608032E+04  1.580716105E+02  3.326467228E+02  2.755557890E+02  2.404010663E+02  8.553666696E-01 
         8 -1.524276490E-02  1.069101094E-01 -2.376908005E-02  8.657068652E+04  1.591009207E+02  3.325242443E+02  2.753528814E+02  2.416483536E+02  8.546862528E-01 
         9 -1.353040875E-02  1.074492491E-01 -2.136449246E-02  8.629376147E+04  1.601319382E+02  3.323978429E+02  2.751435745E+02  2.426104610E+02  8.530286327E-01 
        10 -1.175719847E-02  1.079385502E-01 -1.899452623E-02  8.612095947E+04  1.613167580E+02  3.323042974E+02  2.749886789E+02  2.437333436E+02  8.510886291E-01 
        11 -9.920451205E-03  1.084473482E-01 -1.667649769E-02  8.606793475E+04  1.628141919E+02  3.322441553E+02  2.748892262E+02  2.450285881E+02  8.481916722E-01 
        12 -8.053093039E-03  1.089314126E-01 -1.437870322E-02  8.621346848E+04  1.635597244E+02  3.322996101E+02  2.749810179E+02  2.448224570E+02  8.438861468E-01 
        13 -6.139911673E-03  1.093816015E-01 -1.211111235E-02  8.670236157E+04  1.626502409E+02  3.326002913E+02  2.754787683E+02  2.432863607E+02  8.440297004E-01 
        14 -4.213714023E-03  1.098625599E-01 -9.853315987E-03  8.758226807E+04  1.602385750E+02  3.330808697E+02  2.762755489E+02  2.403430614E+02  8.477177881E-01 
        15 -2.267252226E-03  1.102821410E-01 -7.616721013E-03  8.864903320E+04  1.560016479E+02  3.336498947E+02  2.772205210E+02  2.367988605E+02  8.596249595E-01 
        16 -3.058463972E-04  1.106716081E-01 -5.380345181E-03  8.940992578E+04  1.495562325E+02  3.340313663E+02  2.778549614E+02  2.344122672E+02  8.879290987E-01 
        17  1.649896870E-03  1.110991589E-01 -3.144821902E-03  8.727279187E+04  1.482289236E+02  3.327012196E+02  2.756472628E+02  2.424250398E+02  9.256685907E-01 
        18  3.605378217E-03  1.114680886E-01 -8.997268064E-04  7.559952905E+04  1.779425783E+02  3.261057291E+02  2.648283010E+02  2.895362768E+02  9.423714895E-01 
        19  5.548952344E-03  1.118349081E-01  1.356589372E-03  6.993069379E+04  2.067148790E+02  3.229863341E+02  2.597866011E+02  3.039407804E+02  8.437177339E-01 
        20  7.472030685E-03  1.121892539E-01  3.633809071E-03  7.295244679E+04  2.113171111E+02  3.247653854E+02  2.626568601E+02  2.968594523E+02  7.901726814E-01 
        21  9.366594022E-03  1.125505666E-01  5.932977735E-03  7.668537592E+04  2.082695168E+02  3.270827870E+02  2.664192007E+02  2.845578980E+02  7.574386531E-01 
        22  1.122147558E-02  1.129077905E-01  8.263617067E-03  7.908224574E+04  2.074452600E+02  3.285844511E+02  2.688686882E+02  2.753619775E+02  7.275453199E-01 
        23  1.303284284E-02  1.132507638E-01  1.062953057E-02  8.059461743E+04  2.102096380E+02  3.294228306E+02  2.702412791E+02  2.697450693E+02  6.934952136E-01 
        24  1.479928419E-02  1.136234762E-01  1.303021626E-02  8.178285077E+04  2.147524067E+02  3.300596142E+02  2.712876526E+02  2.667698348E+02  6.596130549E-01 
        25  1.649617427E-02  1.139938279E-01  1.547769530E-02  8.282219952E+04  2.193429570E+02  3.306158297E+02  2.722026348E+02  2.638613238E+02  6.257525515E-01 
        26  1.811807173E-02  1.143837002E-01  1.797032872E-02  8.348271411E+04  2.249344580E+02  3.308805871E+02  2.726384382E+02  2.621751542E+02  5.916698352E-01 
        27  1.968166241E-02  1.148013513E-01  2.049621310E-02  8.349304895E+04  2.325149100E+02  3.307616739E+02  2.724427559E+02  2.631226962E+02  5.567951542E-01 
        28  2.119101764E-02  1.152299366E-01  2.305322148E-02  8.296715697E+04  2.410602404E+02  3.304919184E+02  2.719984278E+02  2.656574456E+02  5.218375174E-01 
        29  2.266338778E-02  1.156643914E-01  2.563116057E-02  8.239610052E+04  2.499090852E+02  3.301444488E+02  2.714272213E+02  2.681408203E+02  4.858826348E-01 
        30  2.408077791E-02  1.161159634E-01  2.823658064E-02  8.190422272E+04  2.585056708E+02  3.297849646E+02  2.708363001E+02  2.712579019E+02  4.536050670E-01 
        31  2.544088325E-02  1.165921105E-01  3.086849856E-02  8.134739429E+04  2.667661543E+02  3.294175763E+02  2.702334080E+02  2.748511696E+02  4.249292254E-01 
        32  2.674433127E-02  1.170738851E-01  3.352942364E-02  8.072712305E+04  2.745392716E+02  3.291261411E+02  2.697554178E+02  2.780831709E+02  3.977376330E-01 
        33  2.797950643E-02  1.175445507E-01  3.622298897E-02  8.016041815E+04  2.822092991E+02  3.289094573E+02  2.693999157E+02  2.806507459E+02  3.688330160E-01 
        34  2.916313541E-02  1.180056499E-01  3.893937175E-02  7.986981480E+04  2.899754111E+02  3.287493421E+02  2.691373683E+02  2.825750315E+02  3.370156240E-01 
        35  3.031249539E-02  1.184785399E-01  4.167042727E-02  7.998140176E+04  2.966857800E+02  3.287622287E+02  2.691585865E+02  2.834800260E+02  3.068539941E-01 
        36  3.139929926E-02  1.189405785E-01  4.442941843E-02  8.024143729E+04  3.021147298E+02  3.289871707E+02  2.695269364E+02  2.833705128E+02  2.794514160E-01 
        37  3.242013936E-02  1.193808800E-01  4.721660669E-02  8.079693119E+04  3.072196049E+02  3.293220887E+02  2.700757583E+02  2.827015271E+02  2.512919911E-01 
        38  3.340677803E-02  1.198011670E-01  5.002067675E-02  8.210460822E+04  3.098791400E+02  3.300558202E+02  2.712812033E+02  2.792591277E+02  2.250262856E-01 
        39  3.430413654E-02  1.201853153E-01  5.285529857E-02  8.384004004E+04  3.107808990E+02  3.310686388E+02  2.729492884E+02  2.739937248E+02  2.007723227E-01 
        40  3.515433510E-02  1.205874318E-01  5.570324370E-02  8.595172461E+04  3.104665165E+02  3.322392120E+02  2.748833046E+02  2.675416050E+02  1.784789525E-01 
        41  3.592907297E-02  1.209644065E-01  5.857535950E-02  8.829725171E+04  3.088478484E+02  3.334824533E+02  2.769445438E+02  2.601968083E+02  1.599315465E-01 
        42  3.664355424E-02  1.213334730E-01  6.146049591E-02  9.071611121E+04  3.058448625E+02  3.346817536E+02  2.789399080E+02  2.523749418E+02  1.475349388E-01 
        43  3.727845098E-02  1.217084379E-01  6.437276718E-02  9.296849902E+04  3.020327110E+02  3.357539968E+02  2.807294474E+02  2.450696154E+02  1.423792522E-01 
        44  3.781448665E-02  1.220744111E-01  6.730672953E-02  9.478080884E+04  2.983430176E+02  3.366573982E+02  2.822414761E+02  2.393528857E+02  1.435790360E-01 
        45  3.826762164E-02  1.224563704E-01  7.025293559E-02  9.599042328E+04  2.955974405E+02  3.373120196E+02  2.833397288E+02  2.357073886E+02  1.480953185E-01 
        46  3.856443464E-02  1.228195695E-01  7.317567491E-02  9.664175781E+04  2.937120972E+02  3.377804718E+02  2.841276093E+02  2.336327591E+02  1.539158039E-01 
        47  3.882754171E-02  1.231963568E-01  7.616928387E-02  9.688291870E+04  2.918784225E+02  3.384627134E+02  2.852779994E+02  2.314895239E+02  1.596782945E-01 
        48  3.896508106E-02  1.235573809E-01  7.913505459E-02  9.682844922E+04  2.879868698E+02  3.395538177E+02  2.871341476E+02  2.249761505E+02  1.635888182E-01 
        49  3.903512947E-02  1.239238609E-01  8.213137167E-02  9.665240491E+04  2.775809216E+02  3.417223134E+02  2.908406887E+02  2.070757201E+02  1.752971264E-01 
        50  3.900153017E-02  1.243001337E-01  8.510504302E-02  9.629045929E+04  2.608643517E+02  3.450502697E+02  2.965430309E+02  1.753626874E+02  1.822838769E-01 
        51  3.889299026E-02  1.246700891E-01  8.806950082E-02  9.596423138E+04  2.434648046E+02  3.486757915E+02  3.027999051E+02  1.296264250E+02  1.653034022E-01 
        52  3.870303970E-02  1.250405990E-01  9.105247242E-02  9.587827002E+04  2.370258050E+02  3.510340519E+02  3.068819361E+02  8.852823460E+01  2.489567484E-02 
        53  3.847530202E-02  1.253810613E-01  9.402032493E-02  9.635423312E+04  2.382810844E+02  3.521682597E+02  3.088625209E+02  5.420459712E+01 -5.092213168E-01 
        54  3.809583015E-02  1.257752167E-01  9.695318516E-02  9.757748730E+04  2.382439842E+02  3.530456123E+02  3.103944435E+02  4.055224657E+01 -1.625987440E+00 
        55  3.767199372E-02  1.261489404E-01  9.992435767E-02  9.846977075E+04  2.464287491E+02  3.525066299E+02  3.094447565E+02  4.695575631E+01 -1.929352593E+00 
        56  3.723780727E-02  1.265196365E-01  1.028569506E-01  9.974971375E+04  2.480127854E+02  3.510289172E+02  3.068553643E+02  6.775361380E+01 -1.065275952E+00 
        57  3.672955052E-02  1.269046997E-01  1.057947981E-01  1.018788516E+05  2.346691368E+02  3.496106343E+02  3.043804955E+02  1.063756721E+02  6.601890759E-02 
        58  3.615520807E-02  1.273091289E-01  1.087154776E-01  1.049259414E+05  2.310714417E+02  3.474958935E+02  3.007133217E+02  1.475823307E+02  2.963144872E-01 
        59  3.556812424E-02  1.277144368E-01  1.116309472E-01  1.073325734E+05  2.414676056E+02  3.454264317E+02  2.971407652E+02  1.749994377E+02  2.898717273E-01 
        60  3.495651588E-02  1.281329458E-01  1.145394580E-01  1.081044932E+05  2.559375315E+02  3.441229067E+02  2.949009461E+02  1.875359216E+02  2.356613358E-01 
        61  3.433795015E-02  1.285471243E-01  1.174457346E-01  1.079893826E+05  2.659381194E+02  3.433432455E+02  2.935638890E+02  1.943809743E+02  1.980167003E-01 
        62  3.376061330E-02  1.289460490E-01  1.203607660E-01  1.079731803E+05  2.688227429E+02  3.430889721E+02  2.931282127E+02  1.963267901E+02  1.885372117E-01 
        63  3.331803132E-02  1.293309423E-01  1.232882868E-01  1.081578085E+05  2.678589556E+02  3.431576192E+02  2.932451992E+02  1.949690477E+02  1.914480242E-01 
        64  3.310586596E-02  1.296649637E-01  1.262581306E-01  1.082308541E+05  2.686313968E+02  3.430571022E+02  2.930732889E+02  1.968068925E+02  1.947999405E-01 
        65  3.306639982E-02  1.299493947E-01  1.292495641E-01  1.081306273E+05  2.707210701E+02  3.429057178E+02  2.928146580E+02  1.997236907E+02  1.940192591E-01 
        66  3.322486525E-02  1.302097713E-01  1.322380794E-01  1.078714353E+05  2.726129715E+02  3.428291536E+02  2.926838706E+02  2.012535405E+02  1.899360385E-01 
        67  3.356462385E-02  1.304573038E-01  1.352130229E-01  1.075634486E+05  2.741029670E+02  3.427934351E+02  2.926228415E+02  2.028119264E+02  1.888377062E-01 
        68  3.400410102E-02  1.306751199E-01  1.381765647E-01  1.072844263E+05  2.757182679E+02  3.427127056E+02  2.924850852E+02  2.047874985E+02  1.883098714E-01 
        69  3.451963359E-02  1.308741206E-01  1.411278790E-01  1.069994044E+05  2.772158322E+02  3.425941744E+02  2.922827158E+02  2.068307557E+02  1.887821748E-01 
        70  3.508991352E-02  1.310576265E-01  1.440660380E-01  1.066646602E+05  2.785854242E+02  3.424577460E+02  2.920499568E+02  2.088936539E+02  1.901305539E-01 
        71  3.570211579E-02  1.312503676E-01  1.470000000E-01  1.062977139E+05  2.799911995E+02  3.423041611E+02  2.917863693E+02  2.111042118E+02  1.915684771E-01 
        72 -2.843361623E-02  1.708417341E-01 -4.258217492E-02  8.203441943E+04  1.839206357E+02  3.299483862E+02  2.711035547E+02  3.441109724E+02  1.006932952E+00 
        73 -2.838826984E-02  1.709653765E-01 -3.916427879E-02  8.215006335E+04  1.838802061E+02  3.300286603E+02  2.712356429E+02  3.443951125E+02  1.007664773E+00 
        74 -2.835908450E-02  1.711140563E-01 -3.574649433E-02  8.238864740E+04  1.837696991E+02  3.301537838E+02  2.714413204E+02  3.436933234E+02  1.006966170E+00 
        75 -2.838361088E-02  1.712589164E-01 -3.232950605E-02  8.287503442E+04  1.833641191E+02  3.304187737E+02  2.718773251E+02  3.431112881E+02  1.007282250E+00 
        76 -2.841360827E-02  1.714319125E-01 -2.891476756E-02  8.338401062E+04  1.820926337E+02  3.307517748E+02  2.724253693E+02  3.415796514E+02  1.008799469E+00 
        77 -2.833774301E-02  1.716334782E-01 -2.549995819E-02  8.384009570E+04  1.810034615E+02  3.310587753E+02  2.729313799E+02  3.397430799E+02  1.009364289E+00 
        78 -2.791452343E-02  1.719215161E-01 -2.212016887E-02  8.424412402E+04  1.806715412E+02  3.311821518E+02  2.731350107E+02  3.399492340E+02  1.010899197E+00 
        79 -2.700703325E-02  1.722886754E-01 -1.884820631E-02  8.434055811E+04  1.802083817E+02  3.312160597E+02  2.731910448E+02  3.402698698E+02  1.013044737E+00 
        80 -2.544395246E-02  1.727209334E-01 -1.584518523E-02  8.334452130E+04  1.813248817E+02  3.306528294E+02  2.722625589E+02  3.430926383E+02  1.014116975E+00 
        81 -2.351536464E-02  1.732363399E-01 -1.306823492E-02  8.135497986E+04  1.853168846E+02  3.295432380E+02  2.704385465E+02  3.490081363E+02  1.011193403E+00 
        82 -2.134527601E-02  1.737374909E-01 -1.047435973E-02  7.864749692E+04  1.910258638E+02  3.279290745E+02  2.677971040E+02  3.550642672E+02  1.003275607E+00 
        83 -1.897326710E-02  1.742189522E-01 -8.035177519E-03  7.567714709E+04  1.986581411E+02  3.262149140E+02  2.650052336E+02  3.640363969E+02  9.949310333E-01 
        84 -1.652827274E-02  1.746780172E-01 -5.688541800E-03  7.362072729E+04  2.053508286E+02  3.248875575E+02  2.628518426E+02  3.709482098E+02  9.865731020E-01 
        85 -1.397929867E-02  1.751251779E-01 -3.446989688E-03  7.274363171E+04  2.089045658E+02  3.244630375E+02  2.621657529E+02  3.724115019E+02  9.770696238E-01 
        86 -1.139011487E-02  1.755573757E-01 -1.256774906E-03  7.350050134E+04  2.105122833E+02  3.248287811E+02  2.627581067E+02  3.722050209E+02  9.710326847E-01 
        87 -8.734274343E-03  1.759085237E-01  8.667805443E-04  7.841002100E+04  2.041953810E+02  3.278457127E+02  2.676680350E+02  3.578863945E+02  9.648232814E-01 
        88 -6.073383534E-03  1.762548475E-01  2.984781313E-03  8.824840350E+04  1.906002537E+02  3.333139498E+02  2.766725215E+02  3.318667848E+02  9.666350642E-01 
        89 -3.359730182E-03  1.765819110E-01  5.053045394E-03  9.827414478E+04  1.740626959E+02  3.384970076E+02  2.853383721E+02  3.055519195E+02  9.875688879E-01 
        90 -6.741955509E-04  1.768270807E-01  7.130208361E-03  9.679894009E+04  1.688645207E+02  3.375213331E+02  2.836939533E+02  3.073441200E+02  1.008440092E+00 
        91  2.027043660E-03  1.770783858E-01  9.208570588E-03  7.915871986E+04  1.900656836E+02  3.283395778E+02  2.684714588E+02  3.556517802E+02  1.008294757E+00 
        92  4.731686997E-03  1.772422585E-01  1.127155269E-02  7.338682115E+04  2.127021138E+02  3.249089490E+02  2.628883495E+02  3.754519295E+02  9.700516446E-01 
        93  7.454465044E-03  1.773874983E-01  1.334309669E-02  7.380652130E+04  2.113498649E+02  3.249290682E+02  2.629217755E+02  3.764992489E+02  9.768098362E-01 
        94  1.015989937E-02  1.775222933E-01  1.545596277E-02  7.098885853E+04  2.191572055E+02  3.230519382E+02  2.598981789E+02  3.833632048E+02  9.651254871E-01 
        95  1.284858280E-02  1.775661421E-01  1.756817794E-02  6.746559360E+04  2.278128479E+02  3.208916146E+02  2.564334444E+02  3.911097822E+02  9.528103424E-01 
        96  1.551966693E-02  1.776138061E-01  1.970369132E-02  6.433817108E+04  2.372991772E+02  3.186751835E+02  2.529057074E+02  4.008188686E+02  9.425445981E-01 
        97  1.817410325E-02  1.776258069E-01  2.186017323E-02  6.171895081E+04  2.458246148E+02  3.168421664E+02  2.500018196E+02  4.088930674E+02  9.321734291E-01 
        98  2.080993586E-02  1.775631240E-01  2.403936301E-02  5.983921094E+04  2.537293472E+02  3.154879885E+02  2.478688617E+02  4.147646761E+02  9.195590261E-01 
        99  2.341570779E-02  1.774969016E-01  2.625394818E-02  5.925499280E+04  2.589327116E+02  3.151629620E+02  2.473587050E+02  4.161355066E+02  9.055311475E-01 
       100  2.600295182E-02  1.773818036E-01  2.848806157E-02  6.104606616E+04  2.604459391E+02  3.165139637E+02  2.495007915E+02  4.114085140E+02  8.898526579E-01 
       101  2.856627515E-02  1.771883875E-01  3.074502562E-02  6.658971606E+04  2.565511150E+02  3.202743454E+02  2.555165586E+02  3.965819931E+02  8.713823669E-01 
       102  3.110662233E-02  1.769811535E-01  3.302644514E-02  7.502003516E+04  2.474150887E+02  3.259708662E+02  2.646842146E+02  3.716080418E+02  8.499045353E-01 
       103  3.362247542E-02  1.767159818E-01  3.532849163E-02  8.186794299E+04  2.428443556E+02  3.302184153E+02  2.715700598E+02  3.518140326E+02  8.261853606E-01 
       104  3.610895472E-02  1.763647845E-01  3.765120331E-02  8.325157373E+04  2.476122892E+02  3.307183871E+02  2.723784485E+02  3.491016541E+02  8.051284868E-01 
       105  3.856497337E-02  1.759966372E-01  4.000321012E-02  8.068270801E+04  2.559865974E+02  3.292297813E+02  2.699293880E+02  3.567981004E+02  7.904517059E-01 
       106  4.103059304E-02  1.755360248E-01  4.234569910E-02  7.833139773E+04  2.631904562E+02  3.280861421E+02  2.680539387E+02  3.623998625E+02  7.763285326E-01 
       107  4.340106546E-02  1.750377176E-01  4.474435622E-02  7.862961522E+04  2.664862409E+02  3.285567977E+02  2.688259121E+02  3.598791888E+02  7.606375543E-01 
       108  4.575540032E-02  1.745445103E-01  4.717695363E-02  8.215901514E+04  2.654908218E+02  3.307437558E+02  2.724219902E+02  3.502302222E+02  7.461769199E-01 
       109  4.807037784E-02  1.739953488E-01  4.963532790E-02  8.844344434E+04  2.614005871E+02  3.340007496E+02  2.778175325E+02  3.345889406E+02  7.322702762E-01 
       110  5.034733117E-02  1.734133857E-01  5.212084081E-02  9.497065283E+04  2.579589806E+02  3.371414223E+02  2.830607624E+02  3.191783447E+02  7.179652452E-01 
       111  5.258765486E-02  1.728405975E-01  5.464144749E-02  9.940853955E+04  2.577786160E+02  3.392481747E+02  2.866042633E+02  3.079174614E+02  7.005186938E-01 
       112  5.479076840E-02  1.722430532E-01  5.718902978E-02  1.021093535E+05  2.583057928E+02  3.406228275E+02  2.889302940E+02  2.998127155E+02  6.862061545E-01 
       113  5.694737683E-02  1.716020731E-01  5.976586917E-02  1.049153843E+05  2.570211020E+02  3.420640216E+02  2.913807623E+02  2.915643036E+02  6.789542213E-01 
       114  5.911848447E-02  1.709340834E-01  6.233872565E-02  1.082361549E+05  2.553730385E+02  3.436265084E+02  2.940475351E+02  2.826497850E+02  6.722792371E-01 
       115  6.119351897E-02  1.703313828E-01  6.496775561E-02  1.110895913E+05  2.542706051E+02  3.448463526E+02  2.961392002E+02  2.753217235E+02  6.669960897E-01 
       116  6.319798910E-02  1.696485115E-01  6.765543605E-02  1.133649462E+05  2.526519165E+02  3.458574634E+02  2.978778272E+02  2.696086345E+02  6.658977065E-01 
       117  6.520189851E-02  1.689621155E-01  7.034628384E-02  1.155202144E+05  2.523409986E+02  3.466837072E+02  2.993026466E+02  2.643191042E+02  6.607804000E-01 
       118  6.717992039E-02  1.682884043E-01  7.305807409E-02  1.172138711E+05  2.508034286E+02  3.474842758E+02  3.006862717E+02  2.595353851E+02  6.616544873E-01 
       119  6.910755662E-02  1.675987334E-01  7.579818779E-02  1.186074498E+05  2.499086454E+02  3.479006162E+02  3.014070637E+02  2.562290332E+02  6.620339882E-01 
       120  7.101404689E-02  1.668389198E-01  7.852135391E-02  1.196565157E+05  2.465135098E+02  3.483858089E+02  3.022487273E+02  2.544602163E+02  6.737941308E-01 
