nodenumber     x-coordinate     y-coordinate     z-coordinate         pressure velocity-magnitude      sound-speed      temperature rel-velocity-magnitude relative-velocity-angle 
         1 -2.216901913E-02  1.039879580E-01 -4.300600202E-02  8.761181406E+04  1.536703708E+02  3.330780904E+02  2.762708327E+02  2.356228937E+02  8.604147265E-01 
         2 -2.197401757E-02  1.042260031E-01 -4.002397295E-02  8.748500266E+04  1.544533078E+02  3.330059844E+02  2.761512585E+02  2.364354551E+02  8.591858328E-01 
         3 -2.150271627E-02  1.045375264E-01 -3.708169353E-02  8.736561938E+04  1.550857688E+02  3.329457817E+02  2.760513968E+02  2.369493920E+02  8.577924771E-01 
         4 -2.072290556E-02  1.049359494E-01 -3.421635317E-02  8.725767847E+04  1.557486057E+02  3.328926167E+02  2.759632697E+02  2.377210202E+02  8.572676266E-01 
         5 -1.964621854E-02  1.053757771E-01 -3.145501365E-02  8.714134351E+04  1.563965225E+02  3.328330984E+02  2.758646297E+02  2.385153933E+02  8.569493070E-01 
         6 -1.833909717E-02  1.058829391E-01 -2.880182754E-02  8.701287476E+04  1.570909896E+02  3.327675200E+02  2.757559881E+02  2.393129816E+02  8.564323243E-01 
         7 -1.686396899E-02  1.064019756E-01 -2.624136390E-02  8.684358203E+04  1.579389653E+02  3.326761770E+02  2.756046553E+02  2.403727307E+02  8.560154885E-01 
         8 -1.524276490E-02  1.069101094E-01 -2.376908005E-02  8.660561072E+04  1.589149947E+02  3.325519514E+02  2.753987937E+02  2.415083885E+02  8.551622443E-01 
         9 -1.353040875E-02  1.074492491E-01 -2.136449246E-02  8.634292676E+04  1.603467000E+02  3.323948007E+02  2.751385181E+02  2.428570886E+02  8.526766775E-01 
        10 -1.175719847E-02  1.079385502E-01 -1.899452623E-02  8.609600110E+04  1.618818344E+02  3.322453256E+02  2.748911302E+02  2.442637932E+02  8.498751400E-01 
        11 -9.920451205E-03  1.084473482E-01 -1.667649769E-02  8.600084604E+04  1.629151049E+02  3.322149650E+02  2.748409972E+02  2.451604902E+02  8.480470201E-01 
        12 -8.053093039E-03  1.089314126E-01 -1.437870322E-02  8.617989963E+04  1.631731634E+02  3.323358673E+02  2.750410182E+02  2.446846801E+02  8.454723042E-01 
        13 -6.139911673E-03  1.093816015E-01 -1.211111235E-02  8.670444141E+04  1.626192284E+02  3.326110744E+02  2.754967012E+02  2.431675305E+02  8.437499311E-01 
        14 -4.213714023E-03  1.098625599E-01 -9.853315987E-03  8.754537939E+04  1.604846001E+02  3.330507145E+02  2.762255363E+02  2.404469995E+02  8.466854282E-01 
        15 -2.267252226E-03  1.102821410E-01 -7.616721013E-03  8.857208057E+04  1.566191778E+02  3.335796375E+02  2.771037016E+02  2.372145796E+02  8.575113341E-01 
        16 -3.058463972E-04  1.106716081E-01 -5.380345181E-03  8.937467920E+04  1.499440861E+02  3.339859943E+02  2.777792730E+02  2.340006680E+02  8.841747716E-01 
        17  1.649896870E-03  1.110991589E-01 -3.144821902E-03  8.735555566E+04  1.479767641E+02  3.327979374E+02  2.758088455E+02  2.429703526E+02  9.273274587E-01 
        18  3.605378217E-03  1.114680886E-01 -8.997268064E-04  7.552353210E+04  1.747687132E+02  3.262743559E+02  2.651015878E+02  2.868983316E+02  9.485604260E-01 
        19  5.548952344E-03  1.118349081E-01  1.356589372E-03  6.996539514E+04  2.094368763E+02  3.227844751E+02  2.594635057E+02  3.088496692E+02  8.506311583E-01 
        20  7.472030685E-03  1.121892539E-01  3.633809071E-03  7.297638054E+04  2.110510826E+02  3.248065976E+02  2.627255918E+02  2.965388913E+02  7.900196624E-01 
        21  9.366594022E-03  1.125505666E-01  5.932977735E-03  7.663903009E+04  2.088220605E+02  3.269004695E+02  2.661227212E+02  2.856219654E+02  7.587477611E-01 
        22  1.122147558E-02  1.129077905E-01  8.263617067E-03  7.900606261E+04  2.083821220E+02  3.283596988E+02  2.685019652E+02  2.768557519E+02  7.285597496E-01 
        23  1.303284284E-02  1.132507638E-01  1.062953057E-02  8.055060368E+04  2.101459993E+02  3.293336506E+02  2.700956443E+02  2.698997516E+02  6.943976037E-01 
        24  1.479928419E-02  1.136234762E-01  1.303021626E-02  8.170967316E+04  2.148113981E+02  3.299473852E+02  2.711030441E+02  2.671926655E+02  6.606772784E-01 
        25  1.649617427E-02  1.139938279E-01  1.547769530E-02  8.270041241E+04  2.202824903E+02  3.304189322E+02  2.718781695E+02  2.657736523E+02  6.277218405E-01 
        26  1.811807173E-02  1.143837002E-01  1.797032872E-02  8.336044324E+04  2.261875069E+02  3.307153535E+02  2.723659234E+02  2.646527343E+02  5.939160977E-01 
        27  1.968166241E-02  1.148013513E-01  2.049621310E-02  8.342914069E+04  2.332571564E+02  3.307343764E+02  2.723973119E+02  2.645169034E+02  5.576006784E-01 
        28  2.119101764E-02  1.152299366E-01  2.305322148E-02  8.289058703E+04  2.420194582E+02  3.304413125E+02  2.719148151E+02  2.664649759E+02  5.196227806E-01 
        29  2.266338778E-02  1.156643914E-01  2.563116057E-02  8.233599072E+04  2.509818519E+02  3.300695884E+02  2.713035394E+02  2.690494161E+02  4.830810116E-01 
        30  2.408077791E-02  1.161159634E-01  2.823658064E-02  8.185436951E+04  2.591045597E+02  3.297643981E+02  2.708018563E+02  2.715142467E+02  4.509458947E-01 
        31  2.544088325E-02  1.165921105E-01  3.086849856E-02  8.131866772E+04  2.669334178E+02  3.294310231E+02  2.702546825E+02  2.740755148E+02  4.210007242E-01 
        32  2.674433127E-02  1.170738851E-01  3.352942364E-02  8.074911548E+04  2.747419584E+02  3.290880680E+02  2.696922226E+02  2.768599906E+02  3.921871297E-01 
        33  2.797950643E-02  1.175445507E-01  3.622298897E-02  8.022792569E+04  2.825850816E+02  3.287792989E+02  2.691862681E+02  2.797146147E+02  3.634827739E-01 
        34  2.916313541E-02  1.180056499E-01  3.893937175E-02  7.993469147E+04  2.899502019E+02  3.285957097E+02  2.688858099E+02  2.818988989E+02  3.346789276E-01 
        35  3.031249539E-02  1.184785399E-01  4.167042727E-02  8.005817657E+04  2.958241628E+02  3.286676233E+02  2.690034789E+02  2.823928885E+02  3.073795624E-01 
        36  3.139929926E-02  1.189405785E-01  4.442941843E-02  8.033642126E+04  3.011505059E+02  3.288659961E+02  2.693281006E+02  2.823011804E+02  2.806623025E-01 
        37  3.242013936E-02  1.193808800E-01  4.721660669E-02  8.082902100E+04  3.059496559E+02  3.292531666E+02  2.699627534E+02  2.812672679E+02  2.526065201E-01 
        38  3.340677803E-02  1.198011670E-01  5.002067675E-02  8.200683813E+04  3.087766113E+02  3.299781413E+02  2.711533091E+02  2.780864859E+02  2.264490945E-01 
        39  3.430413654E-02  1.201853153E-01  5.285529857E-02  8.359923657E+04  3.103547554E+02  3.308976870E+02  2.726671124E+02  2.735147943E+02  2.013076758E-01 
        40  3.515433510E-02  1.205874318E-01  5.570324370E-02  8.558909473E+04  3.106134319E+02  3.319951401E+02  2.744793968E+02  2.676553497E+02  1.781779379E-01 
        41  3.592907297E-02  1.209644065E-01  5.857535950E-02  8.789451245E+04  3.093283906E+02  3.332402897E+02  2.765425930E+02  2.607542448E+02  1.594741950E-01 
        42  3.664355424E-02  1.213334730E-01  6.146049591E-02  9.034521753E+04  3.066000772E+02  3.344906697E+02  2.786216078E+02  2.532752070E+02  1.468244090E-01 
        43  3.727845098E-02  1.217084379E-01  6.437276718E-02  9.267369092E+04  3.030072279E+02  3.356471634E+02  2.805509663E+02  2.460674410E+02  1.406945325E-01 
        44  3.781448665E-02  1.220744111E-01  6.730672953E-02  9.459470874E+04  2.993673000E+02  3.366327229E+02  2.822003574E+02  2.401303840E+02  1.405624617E-01 
        45  3.826762164E-02  1.224563704E-01  7.025293559E-02  9.591711804E+04  2.964801648E+02  3.373622479E+02  2.834243693E+02  2.361735061E+02  1.445508007E-01 
        46  3.856443464E-02  1.228195695E-01  7.317567491E-02  9.662922656E+04  2.946534729E+02  3.378355865E+02  2.842202072E+02  2.341461029E+02  1.501299627E-01 
        47  3.882754171E-02  1.231963568E-01  7.616928387E-02  9.685878058E+04  2.931787522E+02  3.384440418E+02  2.852462101E+02  2.324248236E+02  1.553196805E-01 
        48  3.896508106E-02  1.235573809E-01  7.913505459E-02  9.680422852E+04  2.902963638E+02  3.393301239E+02  2.867521057E+02  2.272765541E+02  1.571958214E-01 
        49  3.903512947E-02  1.239238609E-01  8.213137167E-02  9.666476929E+04  2.818737495E+02  3.411027269E+02  2.897777071E+02  2.126728474E+02  1.635568505E-01 
        50  3.900153017E-02  1.243001337E-01  8.510504302E-02  9.662222458E+04  2.669931453E+02  3.440365435E+02  2.947994035E+02  1.851500888E+02  1.667587858E-01 
        51  3.889299026E-02  1.246700891E-01  8.806950082E-02  9.672752271E+04  2.492567244E+02  3.478103640E+02  3.013037286E+02  1.396240423E+02  1.376500060E-01 
        52  3.870303970E-02  1.250405990E-01  9.105247242E-02  9.694995361E+04  2.381255631E+02  3.513479605E+02  3.074326401E+02  9.472543490E+01  3.174444253E-02 
        53  3.847530202E-02  1.253810613E-01  9.402032493E-02  9.703193622E+04  2.335050567E+02  3.529184692E+02  3.101807582E+02  5.694527425E+01 -1.840086810E-01 
        54  3.809583015E-02  1.257752167E-01  9.695318516E-02  9.772396875E+04  2.303519363E+02  3.535099602E+02  3.112113190E+02  3.648657942E+01 -1.556630477E+00 
        55  3.767199372E-02  1.261489404E-01  9.992435767E-02  9.913215869E+04  2.388803587E+02  3.528625765E+02  3.100694947E+02  3.992511511E+01 -1.447561253E+00 
        56  3.723780727E-02  1.265196365E-01  1.028569506E-01  1.015640964E+05  2.490802191E+02  3.519126767E+02  3.084028435E+02  5.572134468E+01 -1.137651830E+00 
        57  3.672955052E-02  1.269046997E-01  1.057947981E-01  1.036871306E+05  2.529257047E+02  3.507686958E+02  3.064009876E+02  9.286637473E+01 -3.710805174E-01 
        58  3.615520807E-02  1.273091289E-01  1.087154776E-01  1.052454575E+05  2.507852201E+02  3.485089350E+02  3.024697075E+02  1.421751037E+02  9.399555693E-02 
        59  3.556812424E-02  1.277144368E-01  1.116309472E-01  1.069280023E+05  2.531875508E+02  3.455344837E+02  2.973271704E+02  1.798544077E+02  2.313423811E-01 
        60  3.495651588E-02  1.281329458E-01  1.145394580E-01  1.079730046E+05  2.587943034E+02  3.437565832E+02  2.942703495E+02  1.890236001E+02  2.233231012E-01 
        61  3.433795015E-02  1.285471243E-01  1.174457346E-01  1.083659135E+05  2.615312922E+02  3.434436235E+02  2.937339115E+02  1.888580341E+02  2.060871464E-01 
        62  3.376061330E-02  1.289460490E-01  1.203607660E-01  1.083960293E+05  2.649542253E+02  3.434059541E+02  2.936694221E+02  1.915094981E+02  1.951961594E-01 
        63  3.331803132E-02  1.293309423E-01  1.232882868E-01  1.082526683E+05  2.688158144E+02  3.432679003E+02  2.934333770E+02  1.958545725E+02  1.882548167E-01 
        64  3.310586596E-02  1.296649637E-01  1.262581306E-01  1.080600690E+05  2.714666476E+02  3.431379316E+02  2.932111421E+02  1.992059748E+02  1.857020592E-01 
        65  3.306639982E-02  1.299493947E-01  1.292495641E-01  1.078626214E+05  2.729253926E+02  3.430685382E+02  2.930925536E+02  2.011014873E+02  1.854131907E-01 
        66  3.322486525E-02  1.302097713E-01  1.322380794E-01  1.076823013E+05  2.738767585E+02  3.430309647E+02  2.930283968E+02  2.023450681E+02  1.860927063E-01 
        67  3.356462385E-02  1.304573038E-01  1.352130229E-01  1.074983210E+05  2.749296594E+02  3.429585418E+02  2.929046727E+02  2.034650539E+02  1.860281084E-01 
        68  3.400410102E-02  1.306751199E-01  1.381765647E-01  1.072805659E+05  2.760759125E+02  3.428588305E+02  2.927343769E+02  2.048353078E+02  1.861897837E-01 
        69  3.451963359E-02  1.308741206E-01  1.411278790E-01  1.070427732E+05  2.772443392E+02  3.427503791E+02  2.925491877E+02  2.063457601E+02  1.867807508E-01 
        70  3.508991352E-02  1.310576265E-01  1.440660380E-01  1.067488263E+05  2.784983046E+02  3.426230788E+02  2.923319156E+02  2.081797438E+02  1.880415953E-01 
        71  3.570211579E-02  1.312503676E-01  1.470000000E-01  1.063152236E+05  2.801424561E+02  3.424081879E+02  2.919652214E+02  2.104620991E+02  1.883263402E-01 
        72 -2.843361623E-02  1.708417341E-01 -4.258217492E-02  8.202911060E+04  1.838686943E+02  3.299495335E+02  2.711052771E+02  3.444303589E+02  1.007567689E+00 
        73 -2.838826984E-02  1.709653765E-01 -3.916427879E-02  8.207106134E+04  1.842161403E+02  3.299694777E+02  2.711382363E+02  3.448560462E+02  1.007241174E+00 
        74 -2.835908450E-02  1.711140563E-01 -3.574649433E-02  8.236830939E+04  1.840700374E+02  3.301255891E+02  2.713949411E+02  3.439999590E+02  1.006369990E+00 
        75 -2.838361088E-02  1.712589164E-01 -3.232950605E-02  8.290577759E+04  1.828917575E+02  3.304900694E+02  2.719946756E+02  3.419338512E+02  1.006762296E+00 
        76 -2.841360827E-02  1.714319125E-01 -2.891476756E-02  8.351282764E+04  1.825257921E+02  3.307879658E+02  2.724850903E+02  3.419873791E+02  1.008096231E+00 
        77 -2.833774301E-02  1.716334782E-01 -2.549995819E-02  8.408899155E+04  1.812231399E+02  3.311140145E+02  2.730224195E+02  3.403832806E+02  1.009730732E+00 
        78 -2.791452343E-02  1.719215161E-01 -2.212016887E-02  8.448851318E+04  1.799812946E+02  3.313420467E+02  2.733985415E+02  3.388340130E+02  1.011242505E+00 
        79 -2.700703325E-02  1.722886754E-01 -1.884820631E-02  8.434954712E+04  1.794844074E+02  3.312635593E+02  2.732691031E+02  3.392955666E+02  1.013815127E+00 
        80 -2.544395246E-02  1.727209334E-01 -1.584518523E-02  8.323309662E+04  1.815565891E+02  3.305972672E+02  2.721712666E+02  3.435157804E+02  1.014102734E+00 
        81 -2.351536464E-02  1.732363399E-01 -1.306823492E-02  8.139993091E+04  1.843393300E+02  3.296578421E+02  2.706270564E+02  3.483261872E+02  1.013426810E+00 
        82 -2.134527601E-02  1.737374909E-01 -1.047435973E-02  7.872716022E+04  1.911064827E+02  3.280264994E+02  2.679552428E+02  3.557186133E+02  1.004053386E+00 
        83 -1.897326710E-02  1.742189522E-01 -8.035177519E-03  7.554594659E+04  1.994442145E+02  3.260692998E+02  2.647678441E+02  3.654747821E+02  9.949360969E-01 
        84 -1.652827274E-02  1.746780172E-01 -5.688541800E-03  7.329750293E+04  2.065696554E+02  3.246863174E+02  2.625273895E+02  3.723491592E+02  9.848089619E-01 
        85 -1.397929867E-02  1.751251779E-01 -3.446989688E-03  7.261898816E+04  2.102516942E+02  3.242072277E+02  2.617530031E+02  3.739549308E+02  9.757438581E-01 
        86 -1.139011487E-02  1.755573757E-01 -1.256774906E-03  7.380548230E+04  2.110099125E+02  3.249175272E+02  2.629015455E+02  3.720692730E+02  9.692865703E-01 
        87 -8.734274343E-03  1.759085237E-01  8.667805443E-04  7.898757190E+04  2.039626511E+02  3.281100438E+02  2.680972958E+02  3.580657668E+02  9.655222781E-01 
        88 -6.073383534E-03  1.762548475E-01  2.984781313E-03  8.861407837E+04  1.893729542E+02  3.336837204E+02  2.772830129E+02  3.312589366E+02  9.689915478E-01 
        89 -3.359730182E-03  1.765819110E-01  5.053045394E-03  9.819062494E+04  1.762206502E+02  3.382937548E+02  2.849935368E+02  3.041485302E+02  9.783207718E-01 
        90 -6.741955509E-04  1.768270807E-01  7.130208361E-03  9.771817773E+04  1.635696951E+02  3.382503879E+02  2.849212865E+02  3.070307428E+02  1.025774515E+00 
        91  2.027043660E-03  1.770783858E-01  9.208570588E-03  7.968592279E+04  1.913558614E+02  3.283603105E+02  2.685059569E+02  3.552273521E+02  1.003314382E+00 
        92  4.731686997E-03  1.772422585E-01  1.127155269E-02  7.289964453E+04  2.124589828E+02  3.244975094E+02  2.622219799E+02  3.753460275E+02  9.706434492E-01 
        93  7.454465044E-03  1.773874983E-01  1.334309669E-02  7.334963647E+04  2.100599625E+02  3.246128719E+02  2.624078233E+02  3.733533045E+02  9.746262820E-01 
        94  1.015989937E-02  1.775222933E-01  1.545596277E-02  7.067283890E+04  2.186862495E+02  3.228770027E+02  2.596152516E+02  3.838879109E+02  9.675222948E-01 
        95  1.284858280E-02  1.775661421E-01  1.756817794E-02  6.720628690E+04  2.288876232E+02  3.206292868E+02  2.560126435E+02  3.930548220E+02  9.530359581E-01 
        96  1.551966693E-02  1.776138061E-01  1.970369132E-02  6.424038983E+04  2.370469084E+02  3.186761570E+02  2.529044285E+02  4.003907614E+02  9.420382241E-01 
        97  1.817410325E-02  1.776258069E-01  2.186017323E-02  6.181484888E+04  2.450353339E+02  3.169772501E+02  2.502134647E+02  4.078266435E+02  9.320634520E-01 
        98  2.080993586E-02  1.775631240E-01  2.403936301E-02  6.011662390E+04  2.514026809E+02  3.159145441E+02  2.485352583E+02  4.117182398E+02  9.197269119E-01 
        99  2.341570779E-02  1.774969016E-01  2.625394818E-02  5.961819922E+04  2.563029504E+02  3.156491213E+02  2.481176295E+02  4.129100952E+02  9.062934369E-01 
       100  2.600295182E-02  1.773818036E-01  2.848806157E-02  6.132641919E+04  2.579146538E+02  3.169623966E+02  2.502015858E+02  4.084035654E+02  8.907688148E-01 
       101  2.856627515E-02  1.771883875E-01  3.074502562E-02  6.668182861E+04  2.538843546E+02  3.207656870E+02  2.562861872E+02  3.932686567E+02  8.717176728E-01 
       102  3.110662233E-02  1.769811535E-01  3.302644514E-02  7.495585693E+04  2.468366385E+02  3.260679626E+02  2.648321524E+02  3.709574814E+02  8.493896741E-01 
       103  3.362247542E-02  1.767159818E-01  3.532849163E-02  8.174845825E+04  2.440497122E+02  3.299463797E+02  2.711199083E+02  3.538434992E+02  8.249895908E-01 
       104  3.610895472E-02  1.763647845E-01  3.765120331E-02  8.310201526E+04  2.480823259E+02  3.306648440E+02  2.722861819E+02  3.502562075E+02  8.048689738E-01 
       105  3.856497337E-02  1.759966372E-01  4.000321012E-02  8.052670328E+04  2.559357294E+02  3.293482263E+02  2.701234823E+02  3.574955877E+02  7.916437304E-01 
       106  4.103059304E-02  1.755360248E-01  4.234569910E-02  7.827697933E+04  2.638341262E+02  3.281130656E+02  2.680975829E+02  3.640738404E+02  7.770855556E-01 
       107  4.340106546E-02  1.750377176E-01  4.474435622E-02  7.898426732E+04  2.670483728E+02  3.286744125E+02  2.690170772E+02  3.619557230E+02  7.622365600E-01 
       108  4.575540032E-02  1.745445103E-01  4.717695363E-02  8.282586304E+04  2.656506193E+02  3.308784442E+02  2.726434889E+02  3.512621346E+02  7.472321223E-01 
       109  4.807037784E-02  1.739953488E-01  4.963532790E-02  8.890247510E+04  2.611519938E+02  3.340997705E+02  2.779798260E+02  3.342467413E+02  7.322831210E-01 
       110  5.034733117E-02  1.734133857E-01  5.212084081E-02  9.479965137E+04  2.579804249E+02  3.370296116E+02  2.828715324E+02  3.182947693E+02  7.163145654E-01 
       111  5.258765486E-02  1.728405975E-01  5.464144749E-02  9.873798682E+04  2.575125828E+02  3.390262127E+02  2.862287426E+02  3.081242409E+02  7.015517652E-01 
       112  5.479076840E-02  1.722430532E-01  5.718902978E-02  1.016213557E+05  2.581132498E+02  3.404457607E+02  2.886298370E+02  3.010752888E+02  6.886167414E-01 
       113  5.694737683E-02  1.716020731E-01  5.976586917E-02  1.048144448E+05  2.575143332E+02  3.418836923E+02  2.910731518E+02  2.928026080E+02  6.787481629E-01 
       114  5.911848447E-02  1.709340834E-01  6.233872565E-02  1.082644743E+05  2.554881070E+02  3.433741423E+02  2.936160013E+02  2.835886040E+02  6.729701074E-01 
       115  6.119351897E-02  1.703313828E-01  6.496775561E-02  1.110311111E+05  2.540906610E+02  3.445710316E+02  2.956661682E+02  2.756627636E+02  6.680734362E-01 
       116  6.319798910E-02  1.696485115E-01  6.765543605E-02  1.131561196E+05  2.534693952E+02  3.454989343E+02  2.972604656E+02  2.706728187E+02  6.641622940E-01 
       117  6.520189851E-02  1.689621155E-01  7.034628384E-02  1.150689023E+05  2.531521425E+02  3.463497944E+02  2.987262182E+02  2.662585907E+02  6.599916127E-01 
       118  6.717992039E-02  1.682884043E-01  7.305807409E-02  1.168838906E+05  2.522008219E+02  3.471464729E+02  3.001018867E+02  2.617291527E+02  6.584966294E-01 
       119  6.910755662E-02  1.675987334E-01  7.579818779E-02  1.183266594E+05  2.503543816E+02  3.478241935E+02  3.012748413E+02  2.570737212E+02  6.610049624E-01 
       120  7.101404689E-02  1.668389198E-01  7.852135391E-02  1.194414088E+05  2.474608051E+02  3.482638476E+02  3.020370040E+02  2.540300653E+02  6.695091957E-01 
