nodenumber     x-coordinate     y-coordinate     z-coordinate         pressure velocity-magnitude      sound-speed      temperature rel-velocity-magnitude relative-velocity-angle 
         1 -2.216901913E-02  1.039879580E-01 -4.300600202E-02  8.752990294E+04  1.537680051E+02  3.330660642E+02  2.762509405E+02  2.355781836E+02  8.597618815E-01 
         2 -2.197401757E-02  1.042260031E-01 -4.002397295E-02  8.745916608E+04  1.545798026E+02  3.329862440E+02  2.761185106E+02  2.362571529E+02  8.578520643E-01 
         3 -2.150271627E-02  1.045375264E-01 -3.708169353E-02  8.734825507E+04  1.551521314E+02  3.329375119E+02  2.760376894E+02  2.374558264E+02  8.592592278E-01 
         4 -2.072290556E-02  1.049359494E-01 -3.421635317E-02  8.722600342E+04  1.553859282E+02  3.329098835E+02  2.759919257E+02  2.375332458E+02  8.587524174E-01 
         5 -1.964621854E-02  1.053757771E-01 -3.145501365E-02  8.707387134E+04  1.562263560E+02  3.328242960E+02  2.758500347E+02  2.380942259E+02  8.565612938E-01 
         6 -1.833909717E-02  1.058829391E-01 -2.880182754E-02  8.693978149E+04  1.575812654E+02  3.326948328E+02  2.756354856E+02  2.398250299E+02  8.555428851E-01 
         7 -1.686396899E-02  1.064019756E-01 -2.624136390E-02  8.679586401E+04  1.580865917E+02  3.326425705E+02  2.755489416E+02  2.403890162E+02  8.552954197E-01 
         8 -1.524276490E-02  1.069101094E-01 -2.376908005E-02  8.658652686E+04  1.589481611E+02  3.325373921E+02  2.753747091E+02  2.413970790E+02  8.548202980E-01 
         9 -1.353040875E-02  1.074492491E-01 -2.136449246E-02  8.636152527E+04  1.601736073E+02  3.324138494E+02  2.751700895E+02  2.427694948E+02  8.532661097E-01 
        10 -1.175719847E-02  1.079385502E-01 -1.899452623E-02  8.620017023E+04  1.612659782E+02  3.323370817E+02  2.750429404E+02  2.436456378E+02  8.510347502E-01 
        11 -9.920451205E-03  1.084473482E-01 -1.667649769E-02  8.614273206E+04  1.624100045E+02  3.322997459E+02  2.749811203E+02  2.448660642E+02  8.497720847E-01 
        12 -8.053093039E-03  1.089314126E-01 -1.437870322E-02  8.632020016E+04  1.630982254E+02  3.323741241E+02  2.751043029E+02  2.445256940E+02  8.453067956E-01 
        13 -6.139911673E-03  1.093816015E-01 -1.211111235E-02  8.681999268E+04  1.626825671E+02  3.326305113E+02  2.755290742E+02  2.430741639E+02  8.431613650E-01 
        14 -4.213714023E-03  1.098625599E-01 -9.853315987E-03  8.756377441E+04  1.602120333E+02  3.330746593E+02  2.762652435E+02  2.405613546E+02  8.486720100E-01 
        15 -2.267252226E-03  1.102821410E-01 -7.616721013E-03  8.860738330E+04  1.562070990E+02  3.336195602E+02  2.771701546E+02  2.372168064E+02  8.598571271E-01 
        16 -3.058463972E-04  1.106716081E-01 -5.380345181E-03  8.942037671E+04  1.494832325E+02  3.340439425E+02  2.778757153E+02  2.336120367E+02  8.855097257E-01 
        17  1.649896870E-03  1.110991589E-01 -3.144821902E-03  8.702733521E+04  1.471522613E+02  3.327292790E+02  2.756951065E+02  2.443927968E+02  9.361609947E-01 
        18  3.605378217E-03  1.114680886E-01 -8.997268064E-04  7.563247083E+04  1.751759603E+02  3.262502713E+02  2.650631580E+02  2.863632836E+02  9.436587933E-01 
        19  5.548952344E-03  1.118349081E-01  1.356589372E-03  7.005028943E+04  2.097208915E+02  3.227334049E+02  2.593809130E+02  3.079421461E+02  8.451667964E-01 
        20  7.472030685E-03  1.121892539E-01  3.633809071E-03  7.308189766E+04  2.101083023E+02  3.250030003E+02  2.630423718E+02  2.955567753E+02  7.911340664E-01 
        21  9.366594022E-03  1.125505666E-01  5.932977735E-03  7.661978162E+04  2.057172272E+02  3.272881351E+02  2.667542953E+02  2.795975678E+02  7.514897767E-01 
        22  1.122147558E-02  1.129077905E-01  8.263617067E-03  7.896364046E+04  2.053187763E+02  3.287572746E+02  2.691536353E+02  2.729814221E+02  7.287962731E-01 
        23  1.303284284E-02  1.132507638E-01  1.062953057E-02  8.054023675E+04  2.087834304E+02  3.295812361E+02  2.705032739E+02  2.687212772E+02  6.968199171E-01 
        24  1.479928419E-02  1.136234762E-01  1.303021626E-02  8.173208325E+04  2.139959568E+02  3.301074142E+02  2.713672900E+02  2.653065481E+02  6.586478101E-01 
        25  1.649617427E-02  1.139938279E-01  1.547769530E-02  8.280511810E+04  2.189594882E+02  3.305952775E+02  2.721696317E+02  2.626700742E+02  6.240494750E-01 
        26  1.811807173E-02  1.143837002E-01  1.797032872E-02  8.354136023E+04  2.245091398E+02  3.309180350E+02  2.727004037E+02  2.615162783E+02  5.918620015E-01 
        27  1.968166241E-02  1.148013513E-01  2.049621310E-02  8.361917651E+04  2.318969483E+02  3.309030747E+02  2.726753259E+02  2.625890496E+02  5.579413958E-01 
        28  2.119101764E-02  1.152299366E-01  2.305322148E-02  8.308951561E+04  2.408191574E+02  3.305705028E+02  2.721277375E+02  2.654476612E+02  5.221813242E-01 
        29  2.266338778E-02  1.156643914E-01  2.563116057E-02  8.245902966E+04  2.490862817E+02  3.302387233E+02  2.715818707E+02  2.676054654E+02  4.882167117E-01 
        30  2.408077791E-02  1.161159634E-01  2.823658064E-02  8.192654797E+04  2.575455544E+02  3.298626776E+02  2.709637280E+02  2.706416018E+02  4.564259932E-01 
        31  2.544088325E-02  1.165921105E-01  3.086849856E-02  8.135401208E+04  2.659523411E+02  3.294756751E+02  2.703285499E+02  2.740776806E+02  4.264622014E-01 
        32  2.674433127E-02  1.170738851E-01  3.352942364E-02  8.073569849E+04  2.735025129E+02  3.292373424E+02  2.699375300E+02  2.765423591E+02  3.974902537E-01 
        33  2.797950643E-02  1.175445507E-01  3.622298897E-02  8.016413919E+04  2.809620246E+02  3.290439094E+02  2.696202956E+02  2.784907000E+02  3.672499572E-01 
        34  2.916313541E-02  1.180056499E-01  3.893937175E-02  7.984899760E+04  2.892065443E+02  3.287630257E+02  2.691600282E+02  2.810047051E+02  3.351997343E-01 
        35  3.031249539E-02  1.184785399E-01  4.167042727E-02  7.996058936E+04  2.959781027E+02  3.287338095E+02  2.691121205E+02  2.823271321E+02  3.063955350E-01 
        36  3.139929926E-02  1.189405785E-01  4.442941843E-02  8.022897278E+04  3.010083767E+02  3.290223268E+02  2.695845255E+02  2.819586881E+02  2.801001917E-01 
        37  3.242013936E-02  1.193808800E-01  4.721660669E-02  8.077494175E+04  3.059573735E+02  3.294170688E+02  2.702318847E+02  2.809891115E+02  2.514422836E-01 
        38  3.340677803E-02  1.198011670E-01  5.002067675E-02  8.208780099E+04  3.087921816E+02  3.302135769E+02  2.715414071E+02  2.775261832E+02  2.240993435E-01 
        39  3.430413654E-02  1.201853153E-01  5.285529857E-02  8.385294995E+04  3.100830975E+02  3.312779322E+02  2.732950945E+02  2.725259428E+02  1.987920757E-01 
        40  3.515433510E-02  1.205874318E-01  5.570324370E-02  8.598396777E+04  3.103459282E+02  3.324323273E+02  2.752029858E+02  2.666261120E+02  1.754398299E-01 
        41  3.592907297E-02  1.209644065E-01  5.857535950E-02  8.837148682E+04  3.090795212E+02  3.336799831E+02  2.772728314E+02  2.600081615E+02  1.578034232E-01 
        42  3.664355424E-02  1.213334730E-01  6.146049591E-02  9.083651294E+04  3.062381206E+02  3.349028726E+02  2.793085837E+02  2.527261410E+02  1.465874033E-01 
        43  3.727845098E-02  1.217084379E-01  6.437276718E-02  9.308251123E+04  3.024987898E+02  3.359502888E+02  2.810577335E+02  2.456765308E+02  1.420437815E-01 
        44  3.781448665E-02  1.220744111E-01  6.730672953E-02  9.480680542E+04  2.986812725E+02  3.367749062E+02  2.824385595E+02  2.400625401E+02  1.444805437E-01 
        45  3.826762164E-02  1.224563704E-01  7.025293559E-02  9.589176581E+04  2.956895349E+02  3.373097684E+02  2.833357630E+02  2.362179201E+02  1.496668833E-01 
        46  3.856443464E-02  1.228195695E-01  7.317567491E-02  9.643237109E+04  2.937375946E+02  3.376071625E+02  2.838356705E+02  2.341323547E+02  1.558597386E-01 
        47  3.882754171E-02  1.231963568E-01  7.616928387E-02  9.666055789E+04  2.914117510E+02  3.381866250E+02  2.848128043E+02  2.316687868E+02  1.633799525E-01 
        48  3.896508106E-02  1.235573809E-01  7.913505459E-02  9.670383398E+04  2.868351555E+02  3.393201523E+02  2.867406006E+02  2.239906311E+02  1.676045805E-01 
        49  3.903512947E-02  1.239238609E-01  8.213137167E-02  9.661660095E+04  2.750479732E+02  3.417595489E+02  2.909085600E+02  2.036708432E+02  1.815249065E-01 
        50  3.900153017E-02  1.243001337E-01  8.510504302E-02  9.642660504E+04  2.575015196E+02  3.453842716E+02  2.971174644E+02  1.690804144E+02  1.829984542E-01 
        51  3.889299026E-02  1.246700891E-01  8.806950082E-02  9.633736810E+04  2.396844091E+02  3.493701181E+02  3.040033867E+02  1.209657034E+02  1.674716776E-01 
        52  3.870303970E-02  1.250405990E-01  9.105247242E-02  9.633272705E+04  2.325348129E+02  3.522017002E+02  3.089183588E+02  7.867436409E+01  3.547561535E-02 
        53  3.847530202E-02  1.253810613E-01  9.402032493E-02  9.699280075E+04  2.335363739E+02  3.531541944E+02  3.105872462E+02  4.533120487E+01 -4.154751904E-01 
        54  3.809583015E-02  1.257752167E-01  9.695318516E-02  9.701432910E+04  2.282727966E+02  3.532463074E+02  3.107438545E+02  4.067929506E+01 -8.035066163E-01 
        55  3.767199372E-02  1.261489404E-01  9.992435767E-02  9.789512061E+04  2.423139238E+02  3.525174179E+02  3.094617877E+02  4.795335543E+01 -1.717089985E+00 
        56  3.723780727E-02  1.265196365E-01  1.028569506E-01  1.001458492E+05  2.531763998E+02  3.522221321E+02  3.089434696E+02  6.276797937E+01 -1.244796705E+00 
        57  3.672955052E-02  1.269046997E-01  1.057947981E-01  1.014719171E+05  2.474718578E+02  3.508549275E+02  3.065501633E+02  1.073624487E+02 -1.374173549E-01 
        58  3.615520807E-02  1.273091289E-01  1.087154776E-01  1.027189949E+05  2.381126652E+02  3.482600594E+02  3.020357161E+02  1.513534374E+02  2.472477518E-01 
        59  3.556812424E-02  1.277144368E-01  1.116309472E-01  1.046909931E+05  2.448050194E+02  3.449811752E+02  2.963752320E+02  1.821239266E+02  2.937078548E-01 
        60  3.495651588E-02  1.281329458E-01  1.145394580E-01  1.066179570E+05  2.524064121E+02  3.432492418E+02  2.934047232E+02  1.932475095E+02  2.788912472E-01 
        61  3.433795015E-02  1.285471243E-01  1.174457346E-01  1.078436536E+05  2.558902164E+02  3.430483527E+02  2.930589886E+02  1.924460828E+02  2.544274705E-01 
        62  3.376061330E-02  1.289460490E-01  1.203607660E-01  1.082742126E+05  2.606281621E+02  3.432936859E+02  2.934776559E+02  1.920586512E+02  2.244859654E-01 
        63  3.331803132E-02  1.293309423E-01  1.232882868E-01  1.081920269E+05  2.654480639E+02  3.435714140E+02  2.939528353E+02  1.954786577E+02  2.080683945E-01 
        64  3.310586596E-02  1.296649637E-01  1.262581306E-01  1.080137929E+05  2.694353104E+02  3.434849916E+02  2.938048737E+02  1.989688479E+02  1.976342469E-01 
        65  3.306639982E-02  1.299493947E-01  1.292495641E-01  1.078579085E+05  2.726042721E+02  3.430412102E+02  2.930465702E+02  2.003237475E+02  1.849186795E-01 
        66  3.322486525E-02  1.302097713E-01  1.322380794E-01  1.077027354E+05  2.734816758E+02  3.427982379E+02  2.926314172E+02  2.019438402E+02  1.872387652E-01 
        67  3.356462385E-02  1.304573038E-01  1.352130229E-01  1.075518721E+05  2.738399827E+02  3.426886117E+02  2.924441292E+02  2.030398984E+02  1.911744079E-01 
        68  3.400410102E-02  1.306751199E-01  1.381765647E-01  1.073344261E+05  2.746175976E+02  3.426073065E+02  2.923052955E+02  2.033548791E+02  1.897503822E-01 
        69  3.451963359E-02  1.308741206E-01  1.411278790E-01  1.070599727E+05  2.753331788E+02  3.425990167E+02  2.922912016E+02  2.039296105E+02  1.898016743E-01 
        70  3.508991352E-02  1.310576265E-01  1.440660380E-01  1.067624827E+05  2.764914999E+02  3.425329108E+02  2.921783350E+02  2.053643951E+02  1.902343584E-01 
        71  3.570211579E-02  1.312503676E-01  1.470000000E-01  1.063079551E+05  2.782983437E+02  3.423684921E+02  2.918952980E+02  2.079903259E+02  1.906914432E-01 
        72 -2.843361623E-02  1.708417341E-01 -4.258217492E-02  8.214509180E+04  1.835790043E+02  3.300166588E+02  2.712158346E+02  3.438228149E+02  1.007584617E+00 
        73 -2.838826984E-02  1.709653765E-01 -3.916427879E-02  8.216854907E+04  1.835310767E+02  3.300702100E+02  2.713037028E+02  3.445781360E+02  1.009193873E+00 
        74 -2.835908450E-02  1.711140563E-01 -3.574649433E-02  8.229997284E+04  1.835515851E+02  3.301533060E+02  2.714404871E+02  3.430977004E+02  1.006587162E+00 
        75 -2.838361088E-02  1.712589164E-01 -3.232950605E-02  8.267785840E+04  1.849252386E+02  3.301591511E+02  2.714504728E+02  3.442078495E+02  1.004342951E+00 
        76 -2.841360827E-02  1.714319125E-01 -2.891476756E-02  8.326004736E+04  1.825933075E+02  3.306872935E+02  2.723194609E+02  3.409998665E+02  1.006347625E+00 
        77 -2.833774301E-02  1.716334782E-01 -2.549995819E-02  8.375358179E+04  1.805503935E+02  3.310826162E+02  2.729708480E+02  3.381571599E+02  1.008287977E+00 
        78 -2.791452343E-02  1.719215161E-01 -2.212016887E-02  8.418638867E+04  1.815074635E+02  3.310890808E+02  2.729815197E+02  3.416362724E+02  1.011274878E+00 
        79 -2.700703325E-02  1.722886754E-01 -1.884820631E-02  8.412626001E+04  1.811238618E+02  3.310635052E+02  2.729395390E+02  3.401882429E+02  1.009967726E+00 
        80 -2.544395246E-02  1.727209334E-01 -1.584518523E-02  8.330747382E+04  1.815220759E+02  3.306263733E+02  2.722195191E+02  3.424623518E+02  1.012655043E+00 
        81 -2.351536464E-02  1.732363399E-01 -1.306823492E-02  8.134835011E+04  1.851157251E+02  3.295536646E+02  2.704568964E+02  3.488832362E+02  1.012246656E+00 
        82 -2.134527601E-02  1.737374909E-01 -1.047435973E-02  7.866752037E+04  1.902075717E+02  3.280848135E+02  2.680516055E+02  3.547203074E+02  1.005884002E+00 
        83 -1.897326710E-02  1.742189522E-01 -8.035177519E-03  7.595227408E+04  1.983598935E+02  3.263592869E+02  2.652385361E+02  3.635070256E+02  9.949134490E-01 
        84 -1.652827274E-02  1.746780172E-01 -5.688541800E-03  7.387629218E+04  2.044677742E+02  3.250892606E+02  2.631787868E+02  3.691799879E+02  9.858396854E-01 
        85 -1.397929867E-02  1.751251779E-01 -3.446989688E-03  7.295767383E+04  2.094673886E+02  3.243866868E+02  2.620434918E+02  3.723753238E+02  9.753337763E-01 
        86 -1.139011487E-02  1.755573757E-01 -1.256774906E-03  7.357204211E+04  2.100004365E+02  3.249186006E+02  2.629037747E+02  3.705496092E+02  9.699792583E-01 
        87 -8.734274343E-03  1.759085237E-01  8.667805443E-04  7.805704303E+04  2.047465616E+02  3.275995762E+02  2.672681768E+02  3.600242460E+02  9.675466185E-01 
        88 -6.073383534E-03  1.762548475E-01  2.984781313E-03  8.791839728E+04  1.913385270E+02  3.332207820E+02  2.765190600E+02  3.317294934E+02  9.642934096E-01 
        89 -3.359730182E-03  1.765819110E-01  5.053045394E-03  9.807372327E+04  1.768475444E+02  3.381158850E+02  2.846942226E+02  3.054403090E+02  9.789895145E-01 
        90 -6.741955509E-04  1.768270807E-01  7.130208361E-03  9.675103006E+04  1.633650316E+02  3.381443367E+02  2.847435074E+02  3.116527668E+02  1.032187266E+00 
        91  2.027043660E-03  1.770783858E-01  9.208570588E-03  7.939868822E+04  1.931781646E+02  3.280997319E+02  2.680783234E+02  3.551181753E+02  9.980683073E-01 
        92  4.731686997E-03  1.772422585E-01  1.127155269E-02  7.433486574E+04  2.102656485E+02  3.253039801E+02  2.635282832E+02  3.733802308E+02  9.750027236E-01 
        93  7.454465044E-03  1.773874983E-01  1.334309669E-02  7.406239043E+04  2.101863310E+02  3.249466755E+02  2.629505433E+02  3.744687054E+02  9.772080544E-01 
        94  1.015989937E-02  1.775222933E-01  1.545596277E-02  7.091044697E+04  2.192115234E+02  3.228792071E+02  2.596228806E+02  3.832508211E+02  9.650201038E-01 
        95  1.284858280E-02  1.775661421E-01  1.756817794E-02  6.732674121E+04  2.296417142E+02  3.205443274E+02  2.558788012E+02  3.929935253E+02  9.507375034E-01 
        96  1.551966693E-02  1.776138061E-01  1.970369132E-02  6.433179163E+04  2.364124622E+02  3.188321490E+02  2.531523201E+02  3.995868478E+02  9.427685570E-01 
        97  1.817410325E-02  1.776258069E-01  2.186017323E-02  6.175559802E+04  2.454017236E+02  3.169850082E+02  2.502272024E+02  4.089858060E+02  9.342530379E-01 
        98  2.080993586E-02  1.775631240E-01  2.403936301E-02  5.987047021E+04  2.536207490E+02  3.156037769E+02  2.480495691E+02  4.155549974E+02  9.215773027E-01 
        99  2.341570779E-02  1.774969016E-01  2.625394818E-02  5.917650781E+04  2.582101727E+02  3.153121347E+02  2.475930305E+02  4.150001984E+02  9.054411519E-01 
       100  2.600295182E-02  1.773818036E-01  2.848806157E-02  6.077646094E+04  2.596143532E+02  3.165689869E+02  2.495831347E+02  4.098777218E+02  8.891568333E-01 
       101  2.856627515E-02  1.771883875E-01  3.074502562E-02  6.639403271E+04  2.544810076E+02  3.203864489E+02  2.556953192E+02  3.941768131E+02  8.732819594E-01 
       102  3.110662233E-02  1.769811535E-01  3.302644514E-02  7.488832568E+04  2.452143927E+02  3.259903135E+02  2.647209749E+02  3.689313660E+02  8.525934201E-01 
       103  3.362247542E-02  1.767159818E-01  3.532849163E-02  8.162250586E+04  2.425126691E+02  3.300155783E+02  2.712372746E+02  3.522097034E+02  8.278706111E-01 
       104  3.610895472E-02  1.763647845E-01  3.765120331E-02  8.293311914E+04  2.473376732E+02  3.306194282E+02  2.722141600E+02  3.494373498E+02  8.062273143E-01 
       105  3.856497337E-02  1.759966372E-01  4.000321012E-02  8.033798965E+04  2.562714994E+02  3.290451325E+02  2.696279739E+02  3.581839674E+02  7.921336838E-01 
       106  4.103059304E-02  1.755360248E-01  4.234569910E-02  7.797330308E+04  2.629390753E+02  3.279496680E+02  2.678306934E+02  3.641771197E+02  7.805097214E-01 
       107  4.340106546E-02  1.750377176E-01  4.474435622E-02  7.828287154E+04  2.675548942E+02  3.281895583E+02  2.682233616E+02  3.620940487E+02  7.609158675E-01 
       108  4.575540032E-02  1.745445103E-01  4.717695363E-02  8.188783423E+04  2.677639754E+02  3.301425910E+02  2.714334388E+02  3.537589197E+02  7.447734848E-01 
       109  4.807037784E-02  1.739953488E-01  4.963532790E-02  8.835436938E+04  2.624932718E+02  3.337316294E+02  2.773721514E+02  3.356928816E+02  7.305838466E-01 
       110  5.034733117E-02  1.734133857E-01  5.212084081E-02  9.515037061E+04  2.578279209E+02  3.371981964E+02  2.831575813E+02  3.174458580E+02  7.158658952E-01 
       111  5.258765486E-02  1.728405975E-01  5.464144749E-02  9.960065967E+04  2.566487732E+02  3.394588623E+02  2.869604053E+02  3.060098209E+02  7.015578859E-01 
       112  5.479076840E-02  1.722430532E-01  5.718902978E-02  1.023606687E+05  2.576093893E+02  3.409161043E+02  2.894280224E+02  2.980199661E+02  6.861163583E-01 
       113  5.694737683E-02  1.716020731E-01  5.976586917E-02  1.053054871E+05  2.578759670E+02  3.423278244E+02  2.918301702E+02  2.901594102E+02  6.737835607E-01 
       114  5.911848447E-02  1.709340834E-01  6.233872565E-02  1.086908800E+05  2.565371879E+02  3.437771402E+02  2.943055872E+02  2.829235878E+02  6.682335451E-01 
       115  6.119351897E-02  1.703313828E-01  6.496775561E-02  1.115544102E+05  2.554597335E+02  3.449362545E+02  2.962934446E+02  2.766935816E+02  6.641237717E-01 
       116  6.319798910E-02  1.696485115E-01  6.765543605E-02  1.137788453E+05  2.552704258E+02  3.458263469E+02  2.978248100E+02  2.705650721E+02  6.570665250E-01 
       117  6.520189851E-02  1.689621155E-01  7.034628384E-02  1.157633960E+05  2.534272099E+02  3.467350330E+02  2.993918228E+02  2.635337362E+02  6.557963695E-01 
       118  6.717992039E-02  1.682884043E-01  7.305807409E-02  1.175022632E+05  2.506840038E+02  3.476456347E+02  3.009658461E+02  2.587214088E+02  6.612799205E-01 
       119  6.910755662E-02  1.675987334E-01  7.579818779E-02  1.187001984E+05  2.494200966E+02  3.480572672E+02  3.016785963E+02  2.566733556E+02  6.645070934E-01 
       120  7.101404689E-02  1.668389198E-01  7.852135391E-02  1.196053212E+05  2.463319508E+02  3.484816701E+02  3.024149380E+02  2.548928118E+02  6.750225541E-01 
