nodenumber     x-coordinate     y-coordinate     z-coordinate         pressure velocity-magnitude      sound-speed      temperature rel-velocity-magnitude relative-velocity-angle 
         1 -2.216901913E-02  1.039879580E-01 -4.300600202E-02  8.755072687E+04  1.539431291E+02  3.330510868E+02  2.762259535E+02  2.357942310E+02  8.594803264E-01 
         2 -2.197401757E-02  1.042260031E-01 -4.002397295E-02  8.746891708E+04  1.544262677E+02  3.330064838E+02  2.761520479E+02  2.363458254E+02  8.589733145E-01 
         3 -2.150271627E-02  1.045375264E-01 -3.708169353E-02  8.736459113E+04  1.550540909E+02  3.329498353E+02  2.760580761E+02  2.370236126E+02  8.582173167E-01 
         4 -2.072290556E-02  1.049359494E-01 -3.421635317E-02  8.724983997E+04  1.557460620E+02  3.328895936E+02  2.759582129E+02  2.377652926E+02  8.574045794E-01 
         5 -1.964621854E-02  1.053757771E-01 -3.145501365E-02  8.712729346E+04  1.564461575E+02  3.328266134E+02  2.758537841E+02  2.385221081E+02  8.566492684E-01 
         6 -1.833909717E-02  1.058829391E-01 -2.880182754E-02  8.697775635E+04  1.572179761E+02  3.327487926E+02  2.757247791E+02  2.394365525E+02  8.561041765E-01 
         7 -1.686396899E-02  1.064019756E-01 -2.624136390E-02  8.679799829E+04  1.580646653E+02  3.326536684E+02  2.755671873E+02  2.404493971E+02  8.555355705E-01 
         8 -1.524276490E-02  1.069101094E-01 -2.376908005E-02  8.658390186E+04  1.590541902E+02  3.325384688E+02  2.753763285E+02  2.415857801E+02  8.546658084E-01 
         9 -1.353040875E-02  1.074492491E-01 -2.136449246E-02  8.635065491E+04  1.602492523E+02  3.324115515E+02  2.751662409E+02  2.428640623E+02  8.532215562E-01 
        10 -1.175719847E-02  1.079385502E-01 -1.899452623E-02  8.615801428E+04  1.615149498E+02  3.323069584E+02  2.749930699E+02  2.439663384E+02  8.508107550E-01 
        11 -9.920451205E-03  1.084473482E-01 -1.667649769E-02  8.610079724E+04  1.625993453E+02  3.322773933E+02  2.749442117E+02  2.446796016E+02  8.480223068E-01 
        12 -8.053093039E-03  1.089314126E-01 -1.437870322E-02  8.628199130E+04  1.630715606E+02  3.323781912E+02  2.751109992E+02  2.443925537E+02  8.450232460E-01 
        13 -6.139911673E-03  1.093816015E-01 -1.211111235E-02  8.673211523E+04  1.625346489E+02  3.326211758E+02  2.755133514E+02  2.430390477E+02  8.437859360E-01 
        14 -4.213714023E-03  1.098625599E-01 -9.853315987E-03  8.745574658E+04  1.605806198E+02  3.330074368E+02  2.761536446E+02  2.406697083E+02  8.468454741E-01 
        15 -2.267252226E-03  1.102821410E-01 -7.616721013E-03  8.846045068E+04  1.565932550E+02  3.335410080E+02  2.770394411E+02  2.373418360E+02  8.580413498E-01 
        16 -3.058463972E-04  1.106716081E-01 -5.380345181E-03  8.948289429E+04  1.496546926E+02  3.340526876E+02  2.778902092E+02  2.340776291E+02  8.860771898E-01 
        17  1.649896870E-03  1.110991589E-01 -3.144821902E-03  8.722921082E+04  1.465870292E+02  3.328961744E+02  2.759707026E+02  2.435336573E+02  9.355966095E-01 
        18  3.605378217E-03  1.114680886E-01 -8.997268064E-04  7.597046326E+04  1.736428463E+02  3.264394293E+02  2.653686004E+02  2.840780120E+02  9.422075134E-01 
        19  5.548952344E-03  1.118349081E-01  1.356589372E-03  7.020225787E+04  2.073163944E+02  3.229281843E+02  2.596911995E+02  3.061759791E+02  8.501215889E-01 
        20  7.472030685E-03  1.121892539E-01  3.633809071E-03  7.262164917E+04  2.120640745E+02  3.245049190E+02  2.622364097E+02  2.978487163E+02  7.896129834E-01 
        21  9.366594022E-03  1.125505666E-01  5.932977735E-03  7.625873541E+04  2.086492494E+02  3.266948514E+02  2.657867270E+02  2.851833081E+02  7.577014589E-01 
        22  1.122147558E-02  1.129077905E-01  8.263617067E-03  7.872573947E+04  2.084646109E+02  3.280516498E+02  2.679973191E+02  2.767338687E+02  7.270326090E-01 
        23  1.303284284E-02  1.132507638E-01  1.062953057E-02  8.030558001E+04  2.112309010E+02  3.289150901E+02  2.694091979E+02  2.717518787E+02  6.948444161E-01 
        24  1.479928419E-02  1.136234762E-01  1.303021626E-02  8.145485254E+04  2.157515445E+02  3.296029600E+02  2.705372182E+02  2.681920764E+02  6.590109367E-01 
        25  1.649617427E-02  1.139938279E-01  1.547769530E-02  8.249450055E+04  2.207032323E+02  3.302183216E+02  2.715482330E+02  2.650308568E+02  6.225309684E-01 
        26  1.811807173E-02  1.143837002E-01  1.797032872E-02  8.327880200E+04  2.261098483E+02  3.306693382E+02  2.722899251E+02  2.629559474E+02  5.878041713E-01 
        27  1.968166241E-02  1.148013513E-01  2.049621310E-02  8.348790625E+04  2.329120452E+02  3.308081930E+02  2.725183601E+02  2.631062365E+02  5.539467968E-01 
        28  2.119101764E-02  1.152299366E-01  2.305322148E-02  8.303272084E+04  2.413559137E+02  3.306355523E+02  2.722339806E+02  2.654805073E+02  5.194755893E-01 
        29  2.266338778E-02  1.156643914E-01  2.563116057E-02  8.242086481E+04  2.502354336E+02  3.303092015E+02  2.716968943E+02  2.686712663E+02  4.857985841E-01 
        30  2.408077791E-02  1.161159634E-01  2.823658064E-02  8.186628479E+04  2.584483221E+02  3.300427799E+02  2.712588453E+02  2.714745669E+02  4.544273647E-01 
        31  2.544088325E-02  1.165921105E-01  3.086849856E-02  8.131674988E+04  2.665872381E+02  3.297405653E+02  2.707625592E+02  2.743955393E+02  4.241614449E-01 
        32  2.674433127E-02  1.170738851E-01  3.352942364E-02  8.075974646E+04  2.746133294E+02  3.294511456E+02  2.702876780E+02  2.774175997E+02  3.950536861E-01 
        33  2.797950643E-02  1.175445507E-01  3.622298897E-02  8.023720569E+04  2.824179488E+02  3.292289006E+02  2.699234251E+02  2.802188666E+02  3.663510821E-01 
        34  2.916313541E-02  1.180056499E-01  3.893937175E-02  7.994670061E+04  2.896295100E+02  3.291034027E+02  2.697181340E+02  2.821743249E+02  3.375595343E-01 
        35  3.031249539E-02  1.184785399E-01  4.167042727E-02  8.010789227E+04  2.954305528E+02  3.291120131E+02  2.697324513E+02  2.826310407E+02  3.104699902E-01 
        36  3.139929926E-02  1.189405785E-01  4.442941843E-02  8.041460248E+04  3.007183908E+02  3.292192355E+02  2.699080637E+02  2.825018204E+02  2.837218631E-01 
        37  3.242013936E-02  1.193808800E-01  4.721660669E-02  8.096853363E+04  3.057324684E+02  3.293437318E+02  2.701117799E+02  2.814797891E+02  2.546347649E-01 
        38  3.340677803E-02  1.198011670E-01  5.002067675E-02  8.218969388E+04  3.085393089E+02  3.299396303E+02  2.710899754E+02  2.780998081E+02  2.277587086E-01 
        39  3.430413654E-02  1.201853153E-01  5.285529857E-02  8.374850635E+04  3.102082853E+02  3.308800402E+02  2.726380224E+02  2.734974976E+02  2.019951474E-01 
        40  3.515433510E-02  1.205874318E-01  5.570324370E-02  8.562815527E+04  3.106661072E+02  3.319521236E+02  2.744079380E+02  2.678381653E+02  1.785696074E-01 
        41  3.592907297E-02  1.209644065E-01  5.857535950E-02  8.774344043E+04  3.097140326E+02  3.331051416E+02  2.763180041E+02  2.611912255E+02  1.590291429E-01 
        42  3.664355424E-02  1.213334730E-01  6.146049591E-02  8.997555139E+04  3.074248610E+02  3.342718220E+02  2.782568431E+02  2.540763121E+02  1.453061842E-01 
        43  3.727845098E-02  1.217084379E-01  6.437276718E-02  9.211357788E+04  3.043421240E+02  3.353994741E+02  2.801367483E+02  2.472962141E+02  1.378602134E-01 
        44  3.781448665E-02  1.220744111E-01  6.730672953E-02  9.390434937E+04  3.011057453E+02  3.363505888E+02  2.817274761E+02  2.416712103E+02  1.365453377E-01 
        45  3.826762164E-02  1.224563704E-01  7.025293559E-02  9.516186853E+04  2.982554240E+02  3.370682218E+02  2.829305737E+02  2.375238349E+02  1.393845429E-01 
        46  3.856443464E-02  1.228195695E-01  7.317567491E-02  9.589012891E+04  2.961831436E+02  3.375716248E+02  2.837760162E+02  2.350266876E+02  1.443099938E-01 
        47  3.882754171E-02  1.231963568E-01  7.616928387E-02  9.621406436E+04  2.948291973E+02  3.381235056E+02  2.847059953E+02  2.337692747E+02  1.505756775E-01 
        48  3.896508106E-02  1.235573809E-01  7.913505459E-02  9.627892773E+04  2.914087906E+02  3.390464554E+02  2.862748032E+02  2.284931183E+02  1.553049162E-01 
        49  3.903512947E-02  1.239238609E-01  8.213137167E-02  9.630327502E+04  2.831605811E+02  3.408322778E+02  2.893211141E+02  2.144294142E+02  1.611714824E-01 
        50  3.900153017E-02  1.243001337E-01  8.510504302E-02  9.630638620E+04  2.691186620E+02  3.437583470E+02  2.943217033E+02  1.890035442E+02  1.623737100E-01 
        51  3.889299026E-02  1.246700891E-01  8.806950082E-02  9.618363800E+04  2.534343555E+02  3.472135916E+02  3.002721834E+02  1.497069321E+02  1.407764236E-01 
        52  3.870303970E-02  1.250405990E-01  9.105247242E-02  9.634858032E+04  2.440188012E+02  3.501119328E+02  3.052814407E+02  1.132574043E+02  6.714850303E-02 
        53  3.847530202E-02  1.253810613E-01  9.402032493E-02  9.710684824E+04  2.417326537E+02  3.520221150E+02  3.086146821E+02  8.054959601E+01 -2.017226400E-01 
        54  3.809583015E-02  1.257752167E-01  9.695318516E-02  9.919204688E+04  2.399515572E+02  3.532602577E+02  3.107774506E+02  5.382799339E+01 -6.558752358E-01 
        55  3.767199372E-02  1.261489404E-01  9.992435767E-02  1.017441094E+05  2.395168347E+02  3.538271446E+02  3.117664685E+02  4.775052679E+01 -5.928781386E-01 
        56  3.723780727E-02  1.265196365E-01  1.028569506E-01  1.041926263E+05  2.374393204E+02  3.536467946E+02  3.114482918E+02  6.039897403E+01 -2.156222293E-01 
        57  3.672955052E-02  1.269046997E-01  1.057947981E-01  1.059507010E+05  2.375887351E+02  3.522315512E+02  3.089668174E+02  9.086579645E+01  1.628557057E-02 
        58  3.615520807E-02  1.273091289E-01  1.087154776E-01  1.070118552E+05  2.433003449E+02  3.496305418E+02  3.044272070E+02  1.299319954E+02  1.292875595E-01 
        59  3.556812424E-02  1.277144368E-01  1.116309472E-01  1.074396980E+05  2.533543851E+02  3.466063442E+02  2.991811171E+02  1.651478479E+02  1.782043495E-01 
        60  3.495651588E-02  1.281329458E-01  1.145394580E-01  1.075934131E+05  2.625432086E+02  3.443176012E+02  2.952356181E+02  1.873775458E+02  1.938302391E-01 
        61  3.433795015E-02  1.285471243E-01  1.174457346E-01  1.077144570E+05  2.679931474E+02  3.432342076E+02  2.933763895E+02  1.971822376E+02  1.947360323E-01 
        62  3.376061330E-02  1.289460490E-01  1.203607660E-01  1.078077325E+05  2.705448124E+02  3.429529634E+02  2.928950853E+02  2.001842313E+02  1.910690828E-01 
        63  3.331803132E-02  1.293309423E-01  1.232882868E-01  1.078502515E+05  2.719910576E+02  3.429540160E+02  2.928967973E+02  2.010194116E+02  1.869916627E-01 
        64  3.310586596E-02  1.296649637E-01  1.262581306E-01  1.078121542E+05  2.730303373E+02  3.429911869E+02  2.929603069E+02  2.013944651E+02  1.838571237E-01 
        65  3.306639982E-02  1.299493947E-01  1.292495641E-01  1.077003717E+05  2.738752658E+02  3.429940867E+02  2.929652988E+02  2.018111905E+02  1.820619927E-01 
        66  3.322486525E-02  1.302097713E-01  1.322380794E-01  1.075437184E+05  2.747234741E+02  3.429486535E+02  2.928876467E+02  2.026058042E+02  1.817797782E-01 
        67  3.356462385E-02  1.304573038E-01  1.352130229E-01  1.073745013E+05  2.756555815E+02  3.428781163E+02  2.927672155E+02  2.037164156E+02  1.824486852E-01 
        68  3.400410102E-02  1.306751199E-01  1.381765647E-01  1.071857864E+05  2.766244328E+02  3.427941332E+02  2.926238182E+02  2.049955699E+02  1.833958663E-01 
        69  3.451963359E-02  1.308741206E-01  1.411278790E-01  1.069513906E+05  2.776090760E+02  3.427042174E+02  2.924703367E+02  2.064288621E+02  1.848485000E-01 
        70  3.508991352E-02  1.310576265E-01  1.440660380E-01  1.066807966E+05  2.787500029E+02  3.425839133E+02  2.922650020E+02  2.080775056E+02  1.861486065E-01 
        71  3.570211579E-02  1.312503676E-01  1.470000000E-01  1.063210039E+05  2.800658989E+02  3.424407730E+02  2.920218086E+02  2.099693832E+02  1.870112531E-01 
        72 -2.843361623E-02  1.708417341E-01 -4.258217492E-02  8.203414282E+04  1.837792344E+02  3.299700594E+02  2.711389608E+02  3.443174267E+02  1.007634856E+00 
        73 -2.838826984E-02  1.709653765E-01 -3.916427879E-02  8.199597748E+04  1.842391474E+02  3.299548919E+02  2.711140511E+02  3.446211019E+02  1.006614015E+00 
        74 -2.835908450E-02  1.711140563E-01 -3.574649433E-02  8.231456049E+04  1.838688956E+02  3.301513271E+02  2.714370353E+02  3.437816064E+02  1.006367403E+00 
        75 -2.838361088E-02  1.712589164E-01 -3.232950605E-02  8.300791211E+04  1.829581480E+02  3.305349112E+02  2.720682507E+02  3.422799263E+02  1.006814286E+00 
        76 -2.841360827E-02  1.714319125E-01 -2.891476756E-02  8.385653357E+04  1.812612128E+02  3.310339160E+02  2.728902016E+02  3.399908528E+02  1.008602561E+00 
        77 -2.833774301E-02  1.716334782E-01 -2.549995819E-02  8.446829260E+04  1.801080270E+02  3.313609277E+02  2.734295651E+02  3.387326273E+02  1.010405649E+00 
        78 -2.791452343E-02  1.719215161E-01 -2.212016887E-02  8.462854834E+04  1.794176884E+02  3.314472771E+02  2.735720987E+02  3.384473057E+02  1.012330402E+00 
        79 -2.700703325E-02  1.722886754E-01 -1.884820631E-02  8.428154834E+04  1.795865898E+02  3.312335997E+02  2.732195282E+02  3.398485088E+02  1.014210779E+00 
        80 -2.544395246E-02  1.727209334E-01 -1.584518523E-02  8.312137463E+04  1.813761201E+02  3.305739079E+02  2.721325023E+02  3.431927969E+02  1.013980675E+00 
        81 -2.351536464E-02  1.732363399E-01 -1.306823492E-02  8.107874554E+04  1.853927941E+02  3.294115698E+02  2.702225393E+02  3.490927213E+02  1.010944626E+00 
        82 -2.134527601E-02  1.737374909E-01 -1.047435973E-02  7.830010835E+04  1.918735979E+02  3.277874159E+02  2.675648983E+02  3.571570640E+02  1.004075795E+00 
        83 -1.897326710E-02  1.742189522E-01 -8.035177519E-03  7.532484055E+04  1.998687687E+02  3.259894404E+02  2.646376458E+02  3.657762344E+02  9.938679789E-01 
        84 -1.652827274E-02  1.746780172E-01 -5.688541800E-03  7.307574603E+04  2.067747278E+02  3.245957556E+02  2.623792343E+02  3.724130669E+02  9.839297608E-01 
        85 -1.397929867E-02  1.751251779E-01 -3.446989688E-03  7.251939880E+04  2.098313279E+02  3.242472892E+02  2.618158221E+02  3.743343072E+02  9.774752650E-01 
        86 -1.139011487E-02  1.755573757E-01 -1.256774906E-03  7.419960986E+04  2.086007411E+02  3.253016810E+02  2.635226831E+02  3.701549659E+02  9.729598872E-01 
        87 -8.734274343E-03  1.759085237E-01  8.667805443E-04  7.956513495E+04  2.021185431E+02  3.285713012E+02  2.688513784E+02  3.557965689E+02  9.669826422E-01 
        88 -6.073383534E-03  1.762548475E-01  2.984781313E-03  8.895544861E+04  1.905353149E+02  3.337905250E+02  2.774595282E+02  3.296512854E+02  9.622842516E-01 
        89 -3.359730182E-03  1.765819110E-01  5.053045394E-03  9.837791785E+04  1.760165846E+02  3.384172380E+02  2.852016367E+02  3.040194440E+02  9.790209495E-01 
        90 -6.741955509E-04  1.768270807E-01  7.130208361E-03  9.786202290E+04  1.649542458E+02  3.382447484E+02  2.849116159E+02  3.063848239E+02  1.021701954E+00 
        91  2.027043660E-03  1.770783858E-01  9.208570588E-03  7.936509990E+04  1.920229378E+02  3.281386589E+02  2.681424272E+02  3.563939943E+02  1.002534827E+00 
        92  4.731686997E-03  1.772422585E-01  1.127155269E-02  7.206686633E+04  2.149260169E+02  3.239538400E+02  2.613433582E+02  3.779212446E+02  9.672732202E-01 
        93  7.454465044E-03  1.773874983E-01  1.334309669E-02  7.269424599E+04  2.109452748E+02  3.243354985E+02  2.619593769E+02  3.760674852E+02  9.767309211E-01 
        94  1.015989937E-02  1.775222933E-01  1.545596277E-02  7.042100343E+04  2.169622723E+02  3.230175903E+02  2.598388945E+02  3.823632551E+02  9.696760191E-01 
        95  1.284858280E-02  1.775661421E-01  1.756817794E-02  6.706763956E+04  2.275612924E+02  3.208040122E+02  2.562913226E+02  3.918681931E+02  9.545753156E-01 
        96  1.551966693E-02  1.776138061E-01  1.970369132E-02  6.407827197E+04  2.372663426E+02  3.186561253E+02  2.528713450E+02  4.008492627E+02  9.420363307E-01 
        97  1.817410325E-02  1.776258069E-01  2.186017323E-02  6.167246069E+04  2.458149652E+02  3.168933253E+02  2.500794759E+02  4.082688174E+02  9.303426174E-01 
        98  2.080993586E-02  1.775631240E-01  2.403936301E-02  6.007097290E+04  2.527167735E+02  3.157874889E+02  2.483340940E+02  4.131261759E+02  9.185318537E-01 
        99  2.341570779E-02  1.774969016E-01  2.625394818E-02  5.978818982E+04  2.572437439E+02  3.156393661E+02  2.481018953E+02  4.142694674E+02  9.059824552E-01 
       100  2.600295182E-02  1.773818036E-01  2.848806157E-02  6.189665259E+04  2.576829271E+02  3.171694441E+02  2.505306654E+02  4.085367250E+02  8.915564492E-01 
       101  2.856627515E-02  1.771883875E-01  3.074502562E-02  6.765494580E+04  2.522858887E+02  3.211196384E+02  2.568507891E+02  3.921419821E+02  8.742828853E-01 
       102  3.110662233E-02  1.769811535E-01  3.302644514E-02  7.563415503E+04  2.451838741E+02  3.261792412E+02  2.650046234E+02  3.697785616E+02  8.520078864E-01 
       103  3.362247542E-02  1.767159818E-01  3.532849163E-02  8.128680835E+04  2.435535159E+02  3.295220814E+02  2.704193392E+02  3.541894398E+02  8.267123234E-01 
       104  3.610895472E-02  1.763647845E-01  3.765120331E-02  8.170934241E+04  2.499473591E+02  3.296889038E+02  2.706816401E+02  3.536942611E+02  8.042925866E-01 
       105  3.856497337E-02  1.759966372E-01  4.000321012E-02  7.933482919E+04  2.589678094E+02  3.283401288E+02  2.684701062E+02  3.612756548E+02  7.881760974E-01 
       106  4.103059304E-02  1.755360248E-01  4.234569910E-02  7.792317142E+04  2.650671265E+02  3.277111908E+02  2.674398734E+02  3.653306185E+02  7.752377133E-01 
       107  4.340106546E-02  1.750377176E-01  4.474435622E-02  7.947567696E+04  2.667740839E+02  3.287862356E+02  2.692016755E+02  3.608786979E+02  7.610311050E-01 
       108  4.575540032E-02  1.745445103E-01  4.717695363E-02  8.421636743E+04  2.638453312E+02  3.315191751E+02  2.737025878E+02  3.479372015E+02  7.471496612E-01 
       109  4.807037784E-02  1.739953488E-01  4.963532790E-02  9.040968359E+04  2.591648664E+02  3.348101454E+02  2.791616602E+02  3.306819916E+02  7.328067627E-01 
       110  5.034733117E-02  1.734133857E-01  5.212084081E-02  9.519778906E+04  2.576690159E+02  3.371947250E+02  2.831451740E+02  3.177985172E+02  7.162774354E-01 
       111  5.258765486E-02  1.728405975E-01  5.464144749E-02  9.831247314E+04  2.588194256E+02  3.387093792E+02  2.856934643E+02  3.102015419E+02  7.001024783E-01 
       112  5.479076840E-02  1.722430532E-01  5.718902978E-02  1.012431294E+05  2.591857786E+02  3.401870060E+02  2.881916504E+02  3.029134903E+02  6.875239573E-01 
       113  5.694737683E-02  1.716020731E-01  5.976586917E-02  1.044068837E+05  2.584003549E+02  3.417555292E+02  2.908548892E+02  2.940399082E+02  6.771166921E-01 
       114  5.911848447E-02  1.709340834E-01  6.233872565E-02  1.074014537E+05  2.574779290E+02  3.431743868E+02  2.932739600E+02  2.859549085E+02  6.687983140E-01 
       115  6.119351897E-02  1.703313828E-01  6.496775561E-02  1.099582400E+05  2.567937651E+02  3.443024235E+02  2.952052994E+02  2.783967891E+02  6.612720303E-01 
       116  6.319798910E-02  1.696485115E-01  6.765543605E-02  1.123673302E+05  2.560250821E+02  3.453455257E+02  2.969964170E+02  2.716395063E+02  6.553021977E-01 
       117  6.520189851E-02  1.689621155E-01  7.034628384E-02  1.150610542E+05  2.543788128E+02  3.465281181E+02  2.990340443E+02  2.646862535E+02  6.531938612E-01 
       118  6.717992039E-02  1.682884043E-01  7.305807409E-02  1.176737021E+05  2.522097740E+02  3.476307096E+02  3.009397249E+02  2.586391802E+02  6.548523679E-01 
       119  6.910755662E-02  1.675987334E-01  7.579818779E-02  1.190406899E+05  2.512373450E+02  3.481658604E+02  3.018668976E+02  2.547933824E+02  6.548579917E-01 
       120  7.101404689E-02  1.668389198E-01  7.852135391E-02  1.202224756E+05  2.475626367E+02  3.487214506E+02  3.028312001E+02  2.515296191E+02  6.664211312E-01 
