nodenumber     x-coordinate     y-coordinate     z-coordinate         pressure velocity-magnitude      sound-speed      temperature rel-velocity-magnitude relative-velocity-angle 
         1 -2.216901913E-02  1.039879580E-01 -4.300600202E-02  8.755303442E+04  1.539459329E+02  3.330520070E+02  2.762275706E+02  2.357950656E+02  8.594691324E-01 
         2 -2.197401757E-02  1.042260031E-01 -4.002397295E-02  8.747451111E+04  1.544330570E+02  3.330097475E+02  2.761574984E+02  2.363458550E+02  8.589383340E-01 
         3 -2.150271627E-02  1.045375264E-01 -3.708169353E-02  8.737243518E+04  1.550585859E+02  3.329546132E+02  2.760659935E+02  2.370185745E+02  8.581740009E-01 
         4 -2.072290556E-02  1.049359494E-01 -3.421635317E-02  8.725487219E+04  1.557456045E+02  3.328924923E+02  2.759629879E+02  2.377524290E+02  8.573596040E-01 
         5 -1.964621854E-02  1.053757771E-01 -3.145501365E-02  8.712906250E+04  1.564373450E+02  3.328276262E+02  2.758554955E+02  2.385054755E+02  8.566366732E-01 
         6 -1.833909717E-02  1.058829391E-01 -2.880182754E-02  8.697855054E+04  1.571978602E+02  3.327499104E+02  2.757266803E+02  2.394162374E+02  8.561403267E-01 
         7 -1.686396899E-02  1.064019756E-01 -2.624136390E-02  8.679729395E+04  1.580417423E+02  3.326547709E+02  2.755689869E+02  2.404319496E+02  8.555988353E-01 
         8 -1.524276490E-02  1.069101094E-01 -2.376908005E-02  8.658110388E+04  1.590350997E+02  3.325392380E+02  2.753776307E+02  2.415798893E+02  8.547521438E-01 
         9 -1.353040875E-02  1.074492491E-01 -2.136449246E-02  8.634079089E+04  1.602479441E+02  3.324095993E+02  2.751629539E+02  2.428832343E+02  8.533020830E-01 
        10 -1.175719847E-02  1.079385502E-01 -1.899452623E-02  8.613942523E+04  1.615444068E+02  3.323005636E+02  2.749824674E+02  2.440092881E+02  8.508080915E-01 
        11 -9.920451205E-03  1.084473482E-01 -1.667649769E-02  8.607104092E+04  1.626843628E+02  3.322625811E+02  2.749196091E+02  2.447426131E+02  8.477833264E-01 
        12 -8.053093039E-03  1.089314126E-01 -1.437870322E-02  8.625415244E+04  1.631824473E+02  3.323606409E+02  2.750819181E+02  2.444914701E+02  8.447641288E-01 
        13 -6.139911673E-03  1.093816015E-01 -1.211111235E-02  8.677071460E+04  1.625259538E+02  3.326376362E+02  2.755405970E+02  2.430006990E+02  8.436930813E-01 
        14 -4.213714023E-03  1.098625599E-01 -9.853315987E-03  8.758392383E+04  1.603449764E+02  3.330737782E+02  2.762637253E+02  2.403680096E+02  8.471038155E-01 
        15 -2.267252226E-03  1.102821410E-01 -7.616721013E-03  8.849060156E+04  1.563885078E+02  3.335527172E+02  2.770588102E+02  2.372708368E+02  8.589084446E-01 
        16 -3.058463972E-04  1.106716081E-01 -5.380345181E-03  8.937255273E+04  1.498814120E+02  3.339897709E+02  2.777855301E+02  2.344091625E+02  8.858713433E-01 
        17  1.649896870E-03  1.110991589E-01 -3.144821902E-03  8.730394958E+04  1.463988891E+02  3.329165473E+02  2.760044129E+02  2.424080639E+02  9.328296492E-01 
        18  3.605378217E-03  1.114680886E-01 -8.997268064E-04  7.548997888E+04  1.747094719E+02  3.262280068E+02  2.650245743E+02  2.860669990E+02  9.445899557E-01 
        19  5.548952344E-03  1.118349081E-01  1.356589372E-03  7.026268103E+04  2.066051748E+02  3.229548943E+02  2.597344286E+02  3.052882030E+02  8.502810337E-01 
        20  7.472030685E-03  1.121892539E-01  3.633809071E-03  7.276470441E+04  2.107748746E+02  3.244733335E+02  2.621846700E+02  2.962456089E+02  7.899468043E-01 
        21  9.366594022E-03  1.125505666E-01  5.932977735E-03  7.622269904E+04  2.084901354E+02  3.265020633E+02  2.654729536E+02  2.849505379E+02  7.575570899E-01 
        22  1.122147558E-02  1.129077905E-01  8.263617067E-03  7.869001051E+04  2.085640453E+02  3.279860890E+02  2.678906422E+02  2.768561084E+02  7.269653569E-01 
        23  1.303284284E-02  1.132507638E-01  1.062953057E-02  8.036794254E+04  2.108034290E+02  3.290252685E+02  2.695898391E+02  2.712794246E+02  6.954117876E-01 
        24  1.479928419E-02  1.136234762E-01  1.303021626E-02  8.152471201E+04  2.151125984E+02  3.297256608E+02  2.707383711E+02  2.675007186E+02  6.599029871E-01 
        25  1.649617427E-02  1.139938279E-01  1.547769530E-02  8.247814325E+04  2.202423139E+02  3.302727520E+02  2.716374319E+02  2.646692338E+02  6.236868305E-01 
        26  1.811807173E-02  1.143837002E-01  1.797032872E-02  8.317903564E+04  2.259478517E+02  3.306777520E+02  2.723036489E+02  2.631026640E+02  5.892328005E-01 
        27  1.968166241E-02  1.148013513E-01  2.049621310E-02  8.337980432E+04  2.329405849E+02  3.308367741E+02  2.725653872E+02  2.635228415E+02  5.553489472E-01 
        28  2.119101764E-02  1.152299366E-01  2.305322148E-02  8.297842313E+04  2.415749910E+02  3.306848024E+02  2.723150992E+02  2.659898238E+02  5.202254259E-01 
        29  2.266338778E-02  1.156643914E-01  2.563116057E-02  8.242278198E+04  2.503542511E+02  3.304150763E+02  2.718711793E+02  2.689212364E+02  4.860882398E-01 
        30  2.408077791E-02  1.161159634E-01  2.823658064E-02  8.187882709E+04  2.586363125E+02  3.301707220E+02  2.714695659E+02  2.717489214E+02  4.544299459E-01 
        31  2.544088325E-02  1.165921105E-01  3.086849856E-02  8.131076477E+04  2.667721574E+02  3.299081850E+02  2.710384712E+02  2.747707610E+02  4.245566912E-01 
        32  2.674433127E-02  1.170738851E-01  3.352942364E-02  8.072968872E+04  2.747001991E+02  3.296468673E+02  2.706098149E+02  2.777325153E+02  3.957630433E-01 
        33  2.797950643E-02  1.175445507E-01  3.622298897E-02  8.020159512E+04  2.824680734E+02  3.293935802E+02  2.701946238E+02  2.803966582E+02  3.667656555E-01 
        34  2.916313541E-02  1.180056499E-01  3.893937175E-02  7.991217360E+04  2.897188250E+02  3.291848800E+02  2.698525293E+02  2.822968154E+02  3.375619579E-01 
        35  3.031249539E-02  1.184785399E-01  4.167042727E-02  8.003426620E+04  2.955323421E+02  3.291220760E+02  2.697495415E+02  2.827836465E+02  3.105239634E-01 
        36  3.139929926E-02  1.189405785E-01  4.442941843E-02  8.032355347E+04  3.008859771E+02  3.291810029E+02  2.698457541E+02  2.826559519E+02  2.834201442E-01 
        37  3.242013936E-02  1.193808800E-01  4.721660669E-02  8.091873192E+04  3.057496859E+02  3.293029697E+02  2.700450090E+02  2.813966492E+02  2.541750155E-01 
        38  3.340677803E-02  1.198011670E-01  5.002067675E-02  8.215070474E+04  3.085343341E+02  3.299225975E+02  2.710620630E+02  2.780496627E+02  2.275361876E-01 
        39  3.430413654E-02  1.201853153E-01  5.285529857E-02  8.374026587E+04  3.102555857E+02  3.308750515E+02  2.726298695E+02  2.734978352E+02  2.016960159E-01 
        40  3.515433510E-02  1.205874318E-01  5.570324370E-02  8.566291748E+04  3.105792923E+02  3.319683838E+02  2.744351101E+02  2.676924610E+02  1.784425322E-01 
        41  3.592907297E-02  1.209644065E-01  5.857535950E-02  8.782314453E+04  3.095389066E+02  3.331191921E+02  2.763414149E+02  2.609817982E+02  1.591421501E-01 
        42  3.664355424E-02  1.213334730E-01  6.146049591E-02  9.008354688E+04  3.072399449E+02  3.342803612E+02  2.782710347E+02  2.538660479E+02  1.454923113E-01 
        43  3.727845098E-02  1.217084379E-01  6.437276718E-02  9.222406299E+04  3.040685263E+02  3.354316988E+02  2.801908226E+02  2.470159092E+02  1.383207557E-01 
        44  3.781448665E-02  1.220744111E-01  6.730672953E-02  9.399036963E+04  3.006522875E+02  3.364310703E+02  2.818622971E+02  2.411937022E+02  1.372560789E-01 
        45  3.826762164E-02  1.224563704E-01  7.025293559E-02  9.518169128E+04  2.979739280E+02  3.371258614E+02  2.830271416E+02  2.371852826E+02  1.396431027E-01 
        46  3.856443464E-02  1.228195695E-01  7.317567491E-02  9.579895703E+04  2.967355194E+02  3.374491730E+02  2.835699081E+02  2.359221725E+02  1.447091028E-01 
        47  3.882754171E-02  1.231963568E-01  7.616928387E-02  9.606752930E+04  2.954265622E+02  3.379507276E+02  2.844155436E+02  2.343061584E+02  1.493530001E-01 
        48  3.896508106E-02  1.235573809E-01  7.913505459E-02  9.612016602E+04  2.913526268E+02  3.389947128E+02  2.861876030E+02  2.275686264E+02  1.518287472E-01 
        49  3.903512947E-02  1.239238609E-01  8.213137167E-02  9.613243848E+04  2.830123842E+02  3.408155174E+02  2.892907157E+02  2.130813187E+02  1.551750801E-01 
        50  3.900153017E-02  1.243001337E-01  8.510504302E-02  9.611696631E+04  2.693899539E+02  3.436741168E+02  2.941741336E+02  1.887303463E+02  1.569469138E-01 
        51  3.889299026E-02  1.246700891E-01  8.806950082E-02  9.607635883E+04  2.540270760E+02  3.470736225E+02  3.000255334E+02  1.518475230E+02  1.388744091E-01 
        52  3.870303970E-02  1.250405990E-01  9.105247242E-02  9.618885107E+04  2.455326157E+02  3.498900709E+02  3.048969202E+02  1.177493864E+02  6.935885700E-02 
        53  3.847530202E-02  1.253810613E-01  9.402032493E-02  9.712167337E+04  2.430842705E+02  3.519346421E+02  3.084622415E+02  8.530793391E+01 -2.018635649E-01 
        54  3.809583015E-02  1.257752167E-01  9.695318516E-02  9.967244824E+04  2.413041382E+02  3.533032341E+02  3.108546867E+02  5.884970284E+01 -5.562665388E-01 
        55  3.767199372E-02  1.261489404E-01  9.992435767E-02  1.021184661E+05  2.398266559E+02  3.540294914E+02  3.121231666E+02  5.217277908E+01 -4.600608796E-01 
        56  3.723780727E-02  1.265196365E-01  1.028569506E-01  1.044556608E+05  2.372810975E+02  3.538367372E+02  3.117822098E+02  6.287985955E+01 -1.682795845E-01 
        57  3.672955052E-02  1.269046997E-01  1.057947981E-01  1.060483521E+05  2.372533941E+02  3.523793283E+02  3.092249036E+02  9.027503133E+01  2.058958728E-02 
        58  3.615520807E-02  1.273091289E-01  1.087154776E-01  1.069657771E+05  2.424039078E+02  3.497902012E+02  3.047045317E+02  1.264041739E+02  1.241232953E-01 
        59  3.556812424E-02  1.277144368E-01  1.116309472E-01  1.074146763E+05  2.522589245E+02  3.467900388E+02  2.994984815E+02  1.609503015E+02  1.714896515E-01 
        60  3.495651588E-02  1.281329458E-01  1.145394580E-01  1.076133975E+05  2.619673653E+02  3.444395943E+02  2.954453321E+02  1.848022933E+02  1.887495955E-01 
        61  3.433795015E-02  1.285471243E-01  1.174457346E-01  1.077179091E+05  2.679284663E+02  3.432604828E+02  2.934214120E+02  1.964371967E+02  1.925901526E-01 
        62  3.376061330E-02  1.289460490E-01  1.203607660E-01  1.077842079E+05  2.706323345E+02  3.429436216E+02  2.928791475E+02  2.002501884E+02  1.907896581E-01 
        63  3.331803132E-02  1.293309423E-01  1.232882868E-01  1.078462357E+05  2.720177891E+02  3.429677181E+02  2.929202327E+02  2.011784463E+02  1.874062885E-01 
        64  3.310586596E-02  1.296649637E-01  1.262581306E-01  1.078256584E+05  2.730525477E+02  3.430150771E+02  2.930011377E+02  2.015292137E+02  1.842090621E-01 
        65  3.306639982E-02  1.299493947E-01  1.292495641E-01  1.077471462E+05  2.739802129E+02  3.430215622E+02  2.930122570E+02  2.019463230E+02  1.819056089E-01 
        66  3.322486525E-02  1.302097713E-01  1.322380794E-01  1.076155555E+05  2.749314302E+02  3.429802832E+02  2.929416734E+02  2.026991741E+02  1.808423463E-01 
        67  3.356462385E-02  1.304573038E-01  1.352130229E-01  1.074478280E+05  2.759145910E+02  3.429140257E+02  2.928285402E+02  2.037966800E+02  1.811576893E-01 
        68  3.400410102E-02  1.306751199E-01  1.381765647E-01  1.072374427E+05  2.769390156E+02  3.428257079E+02  2.926776838E+02  2.051328423E+02  1.819769507E-01 
        69  3.451963359E-02  1.308741206E-01  1.411278790E-01  1.069982368E+05  2.780151412E+02  3.427199888E+02  2.924971926E+02  2.066367285E+02  1.831391256E-01 
        70  3.508991352E-02  1.310576265E-01  1.440660380E-01  1.067124366E+05  2.790768394E+02  3.426092772E+02  2.923083048E+02  2.082090065E+02  1.846589893E-01 
        71  3.570211579E-02  1.312503676E-01  1.470000000E-01  1.063216924E+05  2.805142860E+02  3.424086685E+02  2.919674149E+02  2.104054832E+02  1.858964060E-01 
        72 -2.843361623E-02  1.708417341E-01 -4.258217492E-02  8.204207422E+04  1.838181787E+02  3.299760561E+02  2.711487856E+02  3.443452158E+02  1.007551480E+00 
        73 -2.838826984E-02  1.709653765E-01 -3.916427879E-02  8.201271246E+04  1.842567780E+02  3.299650097E+02  2.711306548E+02  3.445830979E+02  1.006483341E+00 
        74 -2.835908450E-02  1.711140563E-01 -3.574649433E-02  8.233297083E+04  1.839830453E+02  3.301520228E+02  2.714381871E+02  3.438806493E+02  1.006152618E+00 
        75 -2.838361088E-02  1.712589164E-01 -3.232950605E-02  8.303606055E+04  1.828591623E+02  3.305538769E+02  2.720994167E+02  3.421325445E+02  1.006883342E+00 
        76 -2.841360827E-02  1.714319125E-01 -2.891476756E-02  8.387445630E+04  1.813002596E+02  3.310236678E+02  2.728733215E+02  3.400459361E+02  1.008565286E+00 
        77 -2.833774301E-02  1.716334782E-01 -2.549995819E-02  8.446253226E+04  1.800534595E+02  3.313497940E+02  2.734111809E+02  3.386804284E+02  1.010501027E+00 
        78 -2.791452343E-02  1.719215161E-01 -2.212016887E-02  8.463887256E+04  1.793907976E+02  3.314483204E+02  2.735738258E+02  3.385129242E+02  1.012533400E+00 
        79 -2.700703325E-02  1.722886754E-01 -1.884820631E-02  8.429640869E+04  1.794806557E+02  3.312556992E+02  2.732560062E+02  3.397118120E+02  1.014338974E+00 
        80 -2.544395246E-02  1.727209334E-01 -1.584518523E-02  8.312486719E+04  1.812177378E+02  3.305918403E+02  2.721620488E+02  3.432061357E+02  1.014545886E+00 
        81 -2.351536464E-02  1.732363399E-01 -1.306823492E-02  8.104977121E+04  1.853570834E+02  3.294050103E+02  2.702117612E+02  3.493014253E+02  1.011449572E+00 
        82 -2.134527601E-02  1.737374909E-01 -1.047435973E-02  7.820018379E+04  1.921268555E+02  3.277398691E+02  2.674872234E+02  3.575168978E+02  1.003902558E+00 
        83 -1.897326710E-02  1.742189522E-01 -8.035177519E-03  7.521199887E+04  2.002769799E+02  3.259406276E+02  2.645582144E+02  3.661630846E+02  9.932495439E-01 
        84 -1.652827274E-02  1.746780172E-01 -5.688541800E-03  7.307170544E+04  2.068994031E+02  3.245916686E+02  2.623724985E+02  3.724403954E+02  9.835512200E-01 
        85 -1.397929867E-02  1.751251779E-01 -3.446989688E-03  7.250311084E+04  2.097255826E+02  3.242096105E+02  2.617549610E+02  3.742178736E+02  9.775895458E-01 
        86 -1.139011487E-02  1.755573757E-01 -1.256774906E-03  7.418929016E+04  2.083230853E+02  3.252953644E+02  2.635131969E+02  3.698619542E+02  9.733177889E-01 
        87 -8.734274343E-03  1.759085237E-01  8.667805443E-04  7.961751678E+04  2.019243361E+02  3.285733244E+02  2.688562057E+02  3.550696046E+02  9.664101768E-01 
        88 -6.073383534E-03  1.762548475E-01  2.984781313E-03  8.921244733E+04  1.905779086E+02  3.338706386E+02  2.775937848E+02  3.294186535E+02  9.620033461E-01 
        89 -3.359730182E-03  1.765819110E-01  5.053045394E-03  9.851176324E+04  1.756203276E+02  3.384097793E+02  2.851886530E+02  3.042163839E+02  9.804161768E-01 
        90 -6.741955509E-04  1.768270807E-01  7.130208361E-03  9.879346263E+04  1.634867097E+02  3.387969518E+02  2.858411206E+02  3.038284693E+02  1.022516855E+00 
        91  2.027043660E-03  1.770783858E-01  9.208570588E-03  7.867270435E+04  1.932174165E+02  3.280924016E+02  2.680670816E+02  3.584406229E+02  1.002217133E+00 
        92  4.731686997E-03  1.772422585E-01  1.127155269E-02  7.204687416E+04  2.142849005E+02  3.242445252E+02  2.618124527E+02  3.775522020E+02  9.686068211E-01 
        93  7.454465044E-03  1.773874983E-01  1.334309669E-02  7.298343802E+04  2.097282866E+02  3.244063458E+02  2.620740405E+02  3.747405438E+02  9.780399695E-01 
        94  1.015989937E-02  1.775222933E-01  1.545596277E-02  7.038834429E+04  2.169720429E+02  3.228143188E+02  2.595118683E+02  3.821798441E+02  9.692345042E-01 
        95  1.284858280E-02  1.775661421E-01  1.756817794E-02  6.683105283E+04  2.281231945E+02  3.205743132E+02  2.559250813E+02  3.925482328E+02  9.541730173E-01 
        96  1.551966693E-02  1.776138061E-01  1.970369132E-02  6.386966425E+04  2.376142497E+02  3.185024176E+02  2.526267712E+02  4.014325438E+02  9.421425536E-01 
        97  1.817410325E-02  1.776258069E-01  2.186017323E-02  6.151329907E+04  2.458449974E+02  3.167676826E+02  2.498819270E+02  4.086631269E+02  9.311524136E-01 
        98  2.080993586E-02  1.775631240E-01  2.403936301E-02  5.991302856E+04  2.531941981E+02  3.155280666E+02  2.479274025E+02  4.137653255E+02  9.184675850E-01 
        99  2.341570779E-02  1.774969016E-01  2.625394818E-02  5.969870801E+04  2.576756983E+02  3.154305248E+02  2.477740898E+02  4.147161331E+02  9.056356438E-01 
       100  2.600295182E-02  1.773818036E-01  2.848806157E-02  6.210936938E+04  2.573597860E+02  3.172630291E+02  2.506833372E+02  4.080227070E+02  8.915908076E-01 
       101  2.856627515E-02  1.771883875E-01  3.074502562E-02  6.831002051E+04  2.508164139E+02  3.215011911E+02  2.574629421E+02  3.901383820E+02  8.750268370E-01 
       102  3.110662233E-02  1.769811535E-01  3.302644514E-02  7.603875220E+04  2.438024626E+02  3.263557091E+02  2.652799683E+02  3.680794296E+02  8.530961052E-01 
       103  3.362247542E-02  1.767159818E-01  3.532849163E-02  8.073333350E+04  2.439291792E+02  3.291872358E+02  2.698643541E+02  3.550606003E+02  8.269455861E-01 
       104  3.610895472E-02  1.763647845E-01  3.765120331E-02  8.072854407E+04  2.506489654E+02  3.293500485E+02  2.701235180E+02  3.555036483E+02  8.051725859E-01 
       105  3.856497337E-02  1.759966372E-01  4.000321012E-02  7.871624478E+04  2.588048117E+02  3.282776005E+02  2.683667332E+02  3.621040915E+02  7.901839665E-01 
       106  4.103059304E-02  1.755360248E-01  4.234569910E-02  7.773211859E+04  2.646843840E+02  3.278019693E+02  2.675879077E+02  3.656859981E+02  7.772265238E-01 
       107  4.340106546E-02  1.750377176E-01  4.474435622E-02  7.955069022E+04  2.662428117E+02  3.289447962E+02  2.694612040E+02  3.610141013E+02  7.631106130E-01 
       108  4.575540032E-02  1.745445103E-01  4.717695363E-02  8.471377161E+04  2.629460318E+02  3.317038660E+02  2.740067382E+02  3.469704323E+02  7.484747348E-01 
       109  4.807037784E-02  1.739953488E-01  4.963532790E-02  9.081259668E+04  2.590011358E+02  3.348687649E+02  2.792578745E+02  3.299175577E+02  7.319878861E-01 
       110  5.034733117E-02  1.734133857E-01  5.212084081E-02  9.509698438E+04  2.581270218E+02  3.371714725E+02  2.831061897E+02  3.180696754E+02  7.151051797E-01 
       111  5.258765486E-02  1.728405975E-01  5.464144749E-02  9.809166016E+04  2.586699715E+02  3.387682934E+02  2.857930679E+02  3.101647396E+02  7.005780973E-01 
       112  5.479076840E-02  1.722430532E-01  5.718902978E-02  1.011688450E+05  2.586018124E+02  3.402711668E+02  2.883342161E+02  3.021160917E+02  6.884224918E-01 
       113  5.694737683E-02  1.716020731E-01  5.976586917E-02  1.043810342E+05  2.580839138E+02  3.417713072E+02  2.908814354E+02  2.936290028E+02  6.776228636E-01 
       114  5.911848447E-02  1.709340834E-01  6.233872565E-02  1.073716707E+05  2.574001812E+02  3.431518618E+02  2.932356266E+02  2.856167049E+02  6.686327902E-01 
       115  6.119351897E-02  1.703313828E-01  6.496775561E-02  1.100051499E+05  2.566309114E+02  3.443381948E+02  2.952666836E+02  2.785061326E+02  6.620022580E-01 
       116  6.319798910E-02  1.696485115E-01  6.765543605E-02  1.124163240E+05  2.557772503E+02  3.454074039E+02  2.971028810E+02  2.717334452E+02  6.563444901E-01 
       117  6.520189851E-02  1.689621155E-01  7.034628384E-02  1.147745615E+05  2.547613783E+02  3.464247599E+02  2.988555708E+02  2.655277519E+02  6.526530068E-01 
       118  6.717992039E-02  1.682884043E-01  7.305807409E-02  1.173767974E+05  2.528891726E+02  3.475509319E+02  3.008015680E+02  2.590353479E+02  6.525479127E-01 
       119  6.910755662E-02  1.675987334E-01  7.579818779E-02  1.196215448E+05  2.500091946E+02  3.484691756E+02  3.023930974E+02  2.534940631E+02  6.584437410E-01 
       120  7.101404689E-02  1.668389198E-01  7.852135391E-02  1.209182770E+05  2.456349312E+02  3.490097547E+02  3.033320858E+02  2.503565404E+02  6.731762299E-01 
