nodenumber     x-coordinate     y-coordinate     z-coordinate         pressure velocity-magnitude      sound-speed      temperature rel-velocity-magnitude relative-velocity-angle 
         1 -2.216901913E-02  1.039879580E-01 -4.300600202E-02  8.755647154E+04  1.536934819E+02  3.330746074E+02  2.762650582E+02  2.356069655E+02  8.602443496E-01 
         2 -2.197401757E-02  1.042260031E-01 -4.002397295E-02  8.745618143E+04  1.546824054E+02  3.329764204E+02  2.761022283E+02  2.366418417E+02  8.586642405E-01 
         3 -2.150271627E-02  1.045375264E-01 -3.708169353E-02  8.734733118E+04  1.550455751E+02  3.329431984E+02  2.760471151E+02  2.369197167E+02  8.579357746E-01 
         4 -2.072290556E-02  1.049359494E-01 -3.421635317E-02  8.721755481E+04  1.554772663E+02  3.329041181E+02  2.759823875E+02  2.374476881E+02  8.578603938E-01 
         5 -1.964621854E-02  1.053757771E-01 -3.145501365E-02  8.710282642E+04  1.563113885E+02  3.328278894E+02  2.758560042E+02  2.384399033E+02  8.572505563E-01 
         6 -1.833909717E-02  1.058829391E-01 -2.880182754E-02  8.697107178E+04  1.571416454E+02  3.327483845E+02  2.757242703E+02  2.394922247E+02  8.568892274E-01 
         7 -1.686396899E-02  1.064019756E-01 -2.624136390E-02  8.676518921E+04  1.580192518E+02  3.326384592E+02  2.755421858E+02  2.403172178E+02  8.554126471E-01 
         8 -1.524276490E-02  1.069101094E-01 -2.376908005E-02  8.656179041E+04  1.590626326E+02  3.325256114E+02  2.753551641E+02  2.413844113E+02  8.540126421E-01 
         9 -1.353040875E-02  1.074492491E-01 -2.136449246E-02  8.636980615E+04  1.602668812E+02  3.324075756E+02  2.751596715E+02  2.429417734E+02  8.534645531E-01 
        10 -1.175719847E-02  1.079385502E-01 -1.899452623E-02  8.615708221E+04  1.614293791E+02  3.323111305E+02  2.750000567E+02  2.439881179E+02  8.513658615E-01 
        11 -9.920451205E-03  1.084473482E-01 -1.667649769E-02  8.606270270E+04  1.624792358E+02  3.322715714E+02  2.749345642E+02  2.445366179E+02  8.481711035E-01 
        12 -8.053093039E-03  1.089314126E-01 -1.437870322E-02  8.620378607E+04  1.630786649E+02  3.323498774E+02  2.750641786E+02  2.444894054E+02  8.453331110E-01 
        13 -6.139911673E-03  1.093816015E-01 -1.211111235E-02  8.673394604E+04  1.625801973E+02  3.326162252E+02  2.755052514E+02  2.430377607E+02  8.435681444E-01 
        14 -4.213714023E-03  1.098625599E-01 -9.853315987E-03  8.755335742E+04  1.607116814E+02  3.330262718E+02  2.761850471E+02  2.406506081E+02  8.461112753E-01 
        15 -2.267252226E-03  1.102821410E-01 -7.616721013E-03  8.863077686E+04  1.563494711E+02  3.336233826E+02  2.771763144E+02  2.371393538E+02  8.588559702E-01 
        16 -3.058463972E-04  1.106716081E-01 -5.380345181E-03  8.936520093E+04  1.496691895E+02  3.340094728E+02  2.778184958E+02  2.339517045E+02  8.859276231E-01 
        17  1.649896870E-03  1.110991589E-01 -3.144821902E-03  8.752959619E+04  1.458256581E+02  3.330836678E+02  2.762819335E+02  2.431056297E+02  9.399104640E-01 
        18  3.605378217E-03  1.114680886E-01 -8.997268064E-04  7.556255090E+04  1.781346924E+02  3.258935151E+02  2.644832559E+02  2.868134403E+02  9.312709998E-01 
        19  5.548952344E-03  1.118349081E-01  1.356589372E-03  6.991342572E+04  2.095307018E+02  3.227321053E+02  2.593767800E+02  3.092500482E+02  8.509407383E-01 
        20  7.472030685E-03  1.121892539E-01  3.633809071E-03  7.304830191E+04  2.125359064E+02  3.248354409E+02  2.627732932E+02  2.982433576E+02  7.890053748E-01 
        21  9.366594022E-03  1.125505666E-01  5.932977735E-03  7.660938959E+04  2.072428854E+02  3.271433473E+02  2.665172181E+02  2.816745996E+02  7.519141487E-01 
        22  1.122147558E-02  1.129077905E-01  8.263617067E-03  7.900198096E+04  2.070276537E+02  3.285570989E+02  2.688243245E+02  2.744897390E+02  7.263736930E-01 
        23  1.303284284E-02  1.132507638E-01  1.062953057E-02  8.062389114E+04  2.093446483E+02  3.295215016E+02  2.704036909E+02  2.695191008E+02  6.968262741E-01 
        24  1.479928419E-02  1.136234762E-01  1.303021626E-02  8.179283751E+04  2.143266068E+02  3.300938340E+02  2.713434685E+02  2.661255257E+02  6.597294873E-01 
        25  1.649617427E-02  1.139938279E-01  1.547769530E-02  8.277037463E+04  2.194455295E+02  3.305737548E+02  2.721333919E+02  2.634075506E+02  6.239917781E-01 
        26  1.811807173E-02  1.143837002E-01  1.797032872E-02  8.342457458E+04  2.247188010E+02  3.308996425E+02  2.726701317E+02  2.616973577E+02  5.910900142E-01 
        27  1.968166241E-02  1.148013513E-01  2.049621310E-02  8.349398016E+04  2.317944765E+02  3.308517072E+02  2.725909469E+02  2.622186840E+02  5.572696324E-01 
        28  2.119101764E-02  1.152299366E-01  2.305322148E-02  8.299344653E+04  2.407760472E+02  3.304982759E+02  2.720085410E+02  2.654303104E+02  5.227588084E-01 
        29  2.266338778E-02  1.156643914E-01  2.563116057E-02  8.242201099E+04  2.492079102E+02  3.302225666E+02  2.715553353E+02  2.679382768E+02  4.884719688E-01 
        30  2.408077791E-02  1.161159634E-01  2.823658064E-02  8.191502057E+04  2.575200710E+02  3.299187810E+02  2.710559518E+02  2.701650388E+02  4.545688713E-01 
        31  2.544088325E-02  1.165921105E-01  3.086849856E-02  8.136524976E+04  2.662879269E+02  3.294813108E+02  2.703380046E+02  2.734764762E+02  4.225567249E-01 
        32  2.674433127E-02  1.170738851E-01  3.352942364E-02  8.076301831E+04  2.748793602E+02  3.290590510E+02  2.696454487E+02  2.774061868E+02  3.937393469E-01 
        33  2.797950643E-02  1.175445507E-01  3.622298897E-02  8.018235242E+04  2.825294070E+02  3.288294177E+02  2.692687585E+02  2.805419784E+02  3.668613230E-01 
        34  2.916313541E-02  1.180056499E-01  3.893937175E-02  7.983280965E+04  2.892743163E+02  3.288112333E+02  2.692386531E+02  2.821159697E+02  3.389540599E-01 
        35  3.031249539E-02  1.184785399E-01  4.167042727E-02  7.992923221E+04  2.958171295E+02  3.288502989E+02  2.693026309E+02  2.829938730E+02  3.095480973E-01 
        36  3.139929926E-02  1.189405785E-01  4.442941843E-02  8.021018161E+04  3.020234517E+02  3.289873204E+02  2.695274152E+02  2.834246482E+02  2.801827335E-01 
        37  3.242013936E-02  1.193808800E-01  4.721660669E-02  8.079470530E+04  3.071679612E+02  3.293731856E+02  2.701600157E+02  2.825469979E+02  2.509045823E-01 
        38  3.340677803E-02  1.198011670E-01  5.002067675E-02  8.207921799E+04  3.100098417E+02  3.300830079E+02  2.713256580E+02  2.794643636E+02  2.250609455E-01 
        39  3.430413654E-02  1.201853153E-01  5.285529857E-02  8.382182593E+04  3.110480566E+02  3.310639610E+02  2.729413433E+02  2.744163198E+02  2.009673156E-01 
        40  3.515433510E-02  1.205874318E-01  5.570324370E-02  8.596183252E+04  3.105543747E+02  3.322806225E+02  2.749519978E+02  2.678877602E+02  1.793109886E-01 
        41  3.592907297E-02  1.209644065E-01  5.857535950E-02  8.834120752E+04  3.088202782E+02  3.335822668E+02  2.771103997E+02  2.604589596E+02  1.610471075E-01 
        42  3.664355424E-02  1.213334730E-01  6.146049591E-02  9.078759973E+04  3.059363523E+02  3.347823601E+02  2.791075301E+02  2.526383319E+02  1.480414388E-01 
        43  3.727845098E-02  1.217084379E-01  6.437276718E-02  9.304183374E+04  3.021688776E+02  3.358202066E+02  2.808400850E+02  2.451927624E+02  1.420998992E-01 
        44  3.781448665E-02  1.220744111E-01  6.730672953E-02  9.481418213E+04  2.983758402E+02  3.366700869E+02  2.822625217E+02  2.393106241E+02  1.432368974E-01 
        45  3.826762164E-02  1.224563704E-01  7.025293559E-02  9.597708142E+04  2.955115314E+02  3.372685320E+02  2.832665527E+02  2.356852915E+02  1.485645862E-01 
        46  3.856443464E-02  1.228195695E-01  7.317567491E-02  9.661817969E+04  2.936024094E+02  3.377023773E+02  2.839960403E+02  2.338179474E+02  1.553556845E-01 
        47  3.882754171E-02  1.231963568E-01  7.616928387E-02  9.684483475E+04  2.917536931E+02  3.383712771E+02  2.851239325E+02  2.315031631E+02  1.605384364E-01 
        48  3.896508106E-02  1.235573809E-01  7.913505459E-02  9.677360938E+04  2.875229149E+02  3.395376816E+02  2.871071358E+02  2.244031563E+02  1.644755453E-01 
        49  3.903512947E-02  1.239238609E-01  8.213137167E-02  9.662303857E+04  2.771295114E+02  3.417412841E+02  2.908740788E+02  2.059829031E+02  1.740250133E-01 
        50  3.900153017E-02  1.243001337E-01  8.510504302E-02  9.637779187E+04  2.591188206E+02  3.453215132E+02  2.970123034E+02  1.726254365E+02  1.869502095E-01 
        51  3.889299026E-02  1.246700891E-01  8.806950082E-02  9.603966797E+04  2.417721591E+02  3.489616358E+02  3.032949846E+02  1.262684639E+02  1.723637969E-01 
        52  3.870303970E-02  1.250405990E-01  9.105247242E-02  9.590169531E+04  2.338214340E+02  3.516264324E+02  3.079152036E+02  8.502083755E+01  5.437630537E-02 
        53  3.847530202E-02  1.253810613E-01  9.402032493E-02  9.627202545E+04  2.352118459E+02  3.524312935E+02  3.093220978E+02  5.133081970E+01 -4.222116484E-01 
        54  3.809583015E-02  1.257752167E-01  9.695318516E-02  9.699948730E+04  2.376907158E+02  3.527256241E+02  3.098315506E+02  4.152587843E+01 -1.534937337E+00 
        55  3.767199372E-02  1.261489404E-01  9.992435767E-02  9.824442822E+04  2.486153727E+02  3.524172964E+02  3.092867413E+02  4.786199284E+01 -1.927662116E+00 
        56  3.723780727E-02  1.265196365E-01  1.028569506E-01  9.976634964E+04  2.520847294E+02  3.512271363E+02  3.072022445E+02  6.944623189E+01 -1.059325804E+00 
        57  3.672955052E-02  1.269046997E-01  1.057947981E-01  1.015445712E+05  2.398281677E+02  3.497067161E+02  3.045473552E+02  1.097554877E+02  2.001640759E-02 
        58  3.615520807E-02  1.273091289E-01  1.087154776E-01  1.042456545E+05  2.346482520E+02  3.473871822E+02  3.005237427E+02  1.495893116E+02  2.751798416E-01 
        59  3.556812424E-02  1.277144368E-01  1.116309472E-01  1.066431318E+05  2.438605645E+02  3.449376023E+02  2.962978609E+02  1.750981083E+02  2.757327857E-01 
        60  3.495651588E-02  1.281329458E-01  1.145394580E-01  1.079267341E+05  2.538545051E+02  3.438425217E+02  2.944187484E+02  1.847847881E+02  2.402811414E-01 
        61  3.433795015E-02  1.285471243E-01  1.174457346E-01  1.081332820E+05  2.640725560E+02  3.432520409E+02  2.934080310E+02  1.909126086E+02  1.975061328E-01 
        62  3.376061330E-02  1.289460490E-01  1.203607660E-01  1.080605785E+05  2.685693481E+02  3.431975656E+02  2.933140702E+02  1.949955266E+02  1.854478699E-01 
        63  3.331803132E-02  1.293309423E-01  1.232882868E-01  1.081343854E+05  2.694005044E+02  3.432136164E+02  2.933411900E+02  1.957171969E+02  1.846630770E-01 
        64  3.310586596E-02  1.296649637E-01  1.262581306E-01  1.081768956E+05  2.694581552E+02  3.431001515E+02  2.931468508E+02  1.968309944E+02  1.898901836E-01 
        65  3.306639982E-02  1.299493947E-01  1.292495641E-01  1.081322858E+05  2.703986810E+02  3.429728637E+02  2.929293314E+02  1.997028537E+02  1.959434086E-01 
        66  3.322486525E-02  1.302097713E-01  1.322380794E-01  1.079743057E+05  2.720087656E+02  3.428563746E+02  2.927304094E+02  2.014223128E+02  1.941567442E-01 
        67  3.356462385E-02  1.304573038E-01  1.352130229E-01  1.077587695E+05  2.734459752E+02  3.428228317E+02  2.926730430E+02  2.021759498E+02  1.904872677E-01 
        68  3.400410102E-02  1.306751199E-01  1.381765647E-01  1.074469489E+05  2.748035524E+02  3.427805614E+02  2.926008692E+02  2.036769259E+02  1.899017044E-01 
        69  3.451963359E-02  1.308741206E-01  1.411278790E-01  1.070637759E+05  2.765290966E+02  3.426511068E+02  2.923799539E+02  2.059361446E+02  1.897730336E-01 
        70  3.508991352E-02  1.310576265E-01  1.440660380E-01  1.066993500E+05  2.781272078E+02  3.424956765E+02  2.921146917E+02  2.082099550E+02  1.904814255E-01 
        71  3.570211579E-02  1.312503676E-01  1.470000000E-01  1.062939365E+05  2.795596886E+02  3.423381348E+02  2.918435211E+02  2.104398365E+02  1.917926073E-01 
        72 -2.843361623E-02  1.708417341E-01 -4.258217492E-02  8.210965820E+04  1.838670111E+02  3.299958277E+02  2.711814785E+02  3.446688814E+02  1.008092992E+00 
        73 -2.838826984E-02  1.709653765E-01 -3.916427879E-02  8.217408264E+04  1.839091468E+02  3.300362871E+02  2.712479939E+02  3.440747743E+02  1.006904506E+00 
        74 -2.835908450E-02  1.711140563E-01 -3.574649433E-02  8.240634003E+04  1.836103514E+02  3.301754625E+02  2.714771399E+02  3.433175881E+02  1.006862355E+00 
        75 -2.838361088E-02  1.712589164E-01 -3.232950605E-02  8.283741504E+04  1.831182966E+02  3.304150095E+02  2.718711519E+02  3.436861267E+02  1.009145625E+00 
        76 -2.841360827E-02  1.714319125E-01 -2.891476756E-02  8.328426440E+04  1.823781061E+02  3.306875167E+02  2.723196940E+02  3.410665307E+02  1.007000515E+00 
        77 -2.833774301E-02  1.716334782E-01 -2.549995819E-02  8.372728015E+04  1.818082215E+02  3.309357660E+02  2.727286218E+02  3.403386376E+02  1.007639749E+00 
        78 -2.791452343E-02  1.719215161E-01 -2.212016887E-02  8.421523584E+04  1.801586676E+02  3.312244949E+02  2.732047358E+02  3.393179779E+02  1.011543844E+00 
        79 -2.700703325E-02  1.722886754E-01 -1.884820631E-02  8.423798486E+04  1.805807695E+02  3.311183691E+02  2.730297432E+02  3.411165199E+02  1.013490185E+00 
        80 -2.544395246E-02  1.727209334E-01 -1.584518523E-02  8.321369470E+04  1.813201174E+02  3.306208050E+02  2.722102895E+02  3.435480647E+02  1.015061652E+00 
        81 -2.351536464E-02  1.732363399E-01 -1.306823492E-02  8.129003487E+04  1.854987873E+02  3.294763545E+02  2.703294032E+02  3.480730648E+02  1.009068985E+00 
        82 -2.134527601E-02  1.737374909E-01 -1.047435973E-02  7.878278363E+04  1.907511020E+02  3.280925955E+02  2.680637245E+02  3.561414367E+02  1.006662859E+00 
        83 -1.897326710E-02  1.742189522E-01 -8.035177519E-03  7.587068970E+04  1.991847541E+02  3.261947805E+02  2.649714828E+02  3.635609318E+02  9.923955211E-01 
        84 -1.652827274E-02  1.746780172E-01 -5.688541800E-03  7.362212775E+04  2.048818109E+02  3.249476295E+02  2.629493937E+02  3.699318156E+02  9.855676526E-01 
        85 -1.397929867E-02  1.751251779E-01 -3.446989688E-03  7.271095215E+04  2.097304058E+02  3.243514566E+02  2.619848862E+02  3.734474282E+02  9.763866756E-01 
        86 -1.139011487E-02  1.755573757E-01 -1.256774906E-03  7.343072717E+04  2.098170238E+02  3.248497057E+02  2.627920780E+02  3.712524810E+02  9.714217167E-01 
        87 -8.734274343E-03  1.759085237E-01  8.667805443E-04  7.820059454E+04  2.039849248E+02  3.278213923E+02  2.676310334E+02  3.580379798E+02  9.655539887E-01 
        88 -6.073383534E-03  1.762548475E-01  2.984781313E-03  8.820344409E+04  1.914386909E+02  3.332364557E+02  2.765443439E+02  3.317912955E+02  9.635891393E-01 
        89 -3.359730182E-03  1.765819110E-01  5.053045394E-03  9.805883026E+04  1.754978790E+02  3.382363169E+02  2.848967104E+02  3.044792767E+02  9.814841677E-01 
        90 -6.741955509E-04  1.768270807E-01  7.130208361E-03  9.658194749E+04  1.721127429E+02  3.370164461E+02  2.828450620E+02  3.118124822E+02  1.001969297E+00 
        91  2.027043660E-03  1.770783858E-01  9.208570588E-03  7.872331463E+04  1.907933786E+02  3.281365058E+02  2.681383560E+02  3.564529341E+02  1.007229861E+00 
        92  4.731686997E-03  1.772422585E-01  1.127155269E-02  7.347577277E+04  2.110605850E+02  3.248188355E+02  2.627421888E+02  3.709457310E+02  9.667680828E-01 
        93  7.454465044E-03  1.773874983E-01  1.334309669E-02  7.395068863E+04  2.071925104E+02  3.251824120E+02  2.633311281E+02  3.707395568E+02  9.793099831E-01 
        94  1.015989937E-02  1.775222933E-01  1.545596277E-02  7.102847961E+04  2.169637053E+02  3.233554595E+02  2.603882029E+02  3.824565779E+02  9.706331497E-01 
        95  1.284858280E-02  1.775661421E-01  1.756817794E-02  6.740229010E+04  2.287074294E+02  3.208424317E+02  2.563569206E+02  3.930764587E+02  9.543368178E-01 
        96  1.551966693E-02  1.776138061E-01  1.970369132E-02  6.434023859E+04  2.367116535E+02  3.187777884E+02  2.530695591E+02  3.999108102E+02  9.430066934E-01 
        97  1.817410325E-02  1.776258069E-01  2.186017323E-02  6.175283533E+04  2.448378901E+02  3.169605241E+02  2.501896420E+02  4.071295776E+02  9.319314165E-01 
        98  2.080993586E-02  1.775631240E-01  2.403936301E-02  5.982882800E+04  2.535192604E+02  3.154570060E+02  2.478218713E+02  4.141721802E+02  9.190822244E-01 
        99  2.341570779E-02  1.774969016E-01  2.625394818E-02  5.921070520E+04  2.592573867E+02  3.150631208E+02  2.472038488E+02  4.167466564E+02  9.060586765E-01 
       100  2.600295182E-02  1.773818036E-01  2.848806157E-02  6.099474902E+04  2.601809177E+02  3.165406523E+02  2.495384283E+02  4.115414944E+02  8.908542134E-01 
       101  2.856627515E-02  1.771883875E-01  3.074502562E-02  6.664821484E+04  2.554850559E+02  3.204840784E+02  2.558463163E+02  3.956836109E+02  8.726000004E-01 
       102  3.110662233E-02  1.769811535E-01  3.302644514E-02  7.516453296E+04  2.473735933E+02  3.259822836E+02  2.647014189E+02  3.717997713E+02  8.505444117E-01 
       103  3.362247542E-02  1.767159818E-01  3.532849163E-02  8.181940588E+04  2.434283376E+02  3.300544004E+02  2.713013735E+02  3.529303827E+02  8.264582921E-01 
       104  3.610895472E-02  1.763647845E-01  3.765120331E-02  8.300615906E+04  2.474001758E+02  3.307532363E+02  2.724354682E+02  3.495401058E+02  8.066313397E-01 
       105  3.856497337E-02  1.759966372E-01  4.000321012E-02  8.053712076E+04  2.562574077E+02  3.292363354E+02  2.699406902E+02  3.569179249E+02  7.898402386E-01 
       106  4.103059304E-02  1.755360248E-01  4.234569910E-02  7.830268896E+04  2.638989418E+02  3.279464452E+02  2.678270763E+02  3.635400285E+02  7.762838786E-01 
       107  4.340106546E-02  1.750377176E-01  4.474435622E-02  7.870256265E+04  2.672959802E+02  3.283076586E+02  2.684185506E+02  3.617338667E+02  7.613089557E-01 
       108  4.575540032E-02  1.745445103E-01  4.717695363E-02  8.221716516E+04  2.660142066E+02  3.305283852E+02  2.720679386E+02  3.514467416E+02  7.464449247E-01 
       109  4.807037784E-02  1.739953488E-01  4.963532790E-02  8.843559863E+04  2.610458994E+02  3.340558014E+02  2.779117918E+02  3.335072575E+02  7.319598012E-01 
       110  5.034733117E-02  1.734133857E-01  5.212084081E-02  9.489584424E+04  2.570716648E+02  3.373673916E+02  2.834404297E+02  3.162151928E+02  7.164575681E-01 
       111  5.258765486E-02  1.728405975E-01  5.464144749E-02  9.924010107E+04  2.571796169E+02  3.393048344E+02  2.866992970E+02  3.072752571E+02  7.015864290E-01 
       112  5.479076840E-02  1.722430532E-01  5.718902978E-02  1.020297124E+05  2.584444246E+02  3.405622444E+02  2.888276758E+02  3.012811699E+02  6.878617872E-01 
       113  5.694737683E-02  1.716020731E-01  5.976586917E-02  1.050321497E+05  2.585784066E+02  3.419540474E+02  2.911937652E+02  2.927346480E+02  6.748288260E-01 
       114  5.911848447E-02  1.709340834E-01  6.233872565E-02  1.084714525E+05  2.564283971E+02  3.436172742E+02  2.940324775E+02  2.825542982E+02  6.682535804E-01 
       115  6.119351897E-02  1.703313828E-01  6.496775561E-02  1.113609761E+05  2.545077062E+02  3.449905128E+02  2.963867073E+02  2.747915349E+02  6.654727627E-01 
       116  6.319798910E-02  1.696485115E-01  6.765543605E-02  1.135636010E+05  2.538397832E+02  3.458817182E+02  2.979196153E+02  2.694928007E+02  6.612235941E-01 
       117  6.520189851E-02  1.689621155E-01  7.034628384E-02  1.156126157E+05  2.514062567E+02  3.468364401E+02  2.995665083E+02  2.640977993E+02  6.642569546E-01 
       118  6.717992039E-02  1.682884043E-01  7.305807409E-02  1.172564116E+05  2.506854868E+02  3.474336147E+02  3.005988083E+02  2.602774429E+02  6.627719272E-01 
       119  6.910755662E-02  1.675987334E-01  7.579818779E-02  1.186462526E+05  2.493092277E+02  3.480537562E+02  3.016727073E+02  2.561246474E+02  6.642810050E-01 
       120  7.101404689E-02  1.668389198E-01  7.852135391E-02  1.197574858E+05  2.470414106E+02  3.484746552E+02  3.024026978E+02  2.535286098E+02  6.708021625E-01 
