nodenumber     x-coordinate     y-coordinate     z-coordinate         pressure velocity-magnitude      sound-speed      temperature rel-velocity-magnitude relative-velocity-angle 
         1 -2.216901913E-02  1.039879580E-01 -4.300600202E-02  8.754001442E+04  1.537920085E+02  3.330635077E+02  2.762466749E+02  2.354503685E+02  8.591604233E-01 
         2 -2.197401757E-02  1.042260031E-01 -4.002397295E-02  8.745624908E+04  1.544578144E+02  3.330027912E+02  2.761458931E+02  2.363433946E+02  8.588198910E-01 
         3 -2.150271627E-02  1.045375264E-01 -3.708169353E-02  8.732815295E+04  1.551870189E+02  3.329262075E+02  2.760189495E+02  2.374117551E+02  8.589555859E-01 
         4 -2.072290556E-02  1.049359494E-01 -3.421635317E-02  8.719347546E+04  1.556289785E+02  3.328774734E+02  2.759381800E+02  2.373438754E+02  8.568007583E-01 
         5 -1.964621854E-02  1.053757771E-01 -3.145501365E-02  8.709365649E+04  1.563420501E+02  3.328250303E+02  2.758512559E+02  2.384509192E+02  8.571543973E-01 
         6 -1.833909717E-02  1.058829391E-01 -2.880182754E-02  8.698632422E+04  1.570616527E+02  3.327624197E+02  2.757475572E+02  2.393799362E+02  8.570597991E-01 
         7 -1.686396899E-02  1.064019756E-01 -2.624136390E-02  8.681550000E+04  1.581817927E+02  3.326429443E+02  2.755495653E+02  2.405696478E+02  8.554896805E-01 
         8 -1.524276490E-02  1.069101094E-01 -2.376908005E-02  8.664530713E+04  1.590426450E+02  3.325549440E+02  2.754037261E+02  2.416205745E+02  8.548113182E-01 
         9 -1.353040875E-02  1.074492491E-01 -2.136449246E-02  8.644121130E+04  1.602814865E+02  3.324322801E+02  2.752005618E+02  2.428809388E+02  8.531790897E-01 
        10 -1.175719847E-02  1.079385502E-01 -1.899452623E-02  8.623234869E+04  1.613719367E+02  3.323355141E+02  2.750403726E+02  2.439514139E+02  8.514782116E-01 
        11 -9.920451205E-03  1.084473482E-01 -1.667649769E-02  8.609602908E+04  1.625623973E+02  3.322667220E+02  2.749266038E+02  2.444034244E+02  8.472090994E-01 
        12 -8.053093039E-03  1.089314126E-01 -1.437870322E-02  8.626831696E+04  1.627768839E+02  3.323996365E+02  2.751466049E+02  2.442286481E+02  8.462064811E-01 
        13 -6.139911673E-03  1.093816015E-01 -1.211111235E-02  8.671010327E+04  1.623288698E+02  3.326236763E+02  2.755176673E+02  2.430946817E+02  8.451376408E-01 
        14 -4.213714023E-03  1.098625599E-01 -9.853315987E-03  8.757202246E+04  1.605347013E+02  3.330474319E+02  2.762201900E+02  2.405004749E+02  8.465627320E-01 
        15 -2.267252226E-03  1.102821410E-01 -7.616721013E-03  8.855893701E+04  1.563228750E+02  3.335797882E+02  2.771039476E+02  2.370463791E+02  8.587887250E-01 
        16 -3.058463972E-04  1.106716081E-01 -5.380345181E-03  8.930157886E+04  1.502545357E+02  3.339410076E+02  2.777045946E+02  2.351053414E+02  8.865789250E-01 
        17  1.649896870E-03  1.110991589E-01 -3.144821902E-03  8.750325818E+04  1.450804850E+02  3.330839982E+02  2.762823799E+02  2.405227077E+02  9.338369993E-01 
        18  3.605378217E-03  1.114680886E-01 -8.997268064E-04  7.570364539E+04  1.751684308E+02  3.263103700E+02  2.651593952E+02  2.864861245E+02  9.434011728E-01 
        19  5.548952344E-03  1.118349081E-01  1.356589372E-03  7.008305505E+04  2.119302610E+02  3.225201001E+02  2.590365515E+02  3.103860545E+02  8.429144039E-01 
        20  7.472030685E-03  1.121892539E-01  3.633809071E-03  7.296035352E+04  2.137799670E+02  3.244793203E+02  2.621984250E+02  2.987673004E+02  7.846781265E-01 
        21  9.366594022E-03  1.125505666E-01  5.932977735E-03  7.657338293E+04  2.074258723E+02  3.270984380E+02  2.664447753E+02  2.825403676E+02  7.542871549E-01 
        22  1.122147558E-02  1.129077905E-01  8.263617067E-03  7.898814903E+04  2.060574505E+02  3.286962679E+02  2.690528075E+02  2.717285328E+02  7.209020545E-01 
        23  1.303284284E-02  1.132507638E-01  1.062953057E-02  8.055381181E+04  2.084185742E+02  3.296141107E+02  2.705574611E+02  2.679498454E+02  6.953004289E-01 
        24  1.479928419E-02  1.136234762E-01  1.303021626E-02  8.174225516E+04  2.138837509E+02  3.301417098E+02  2.714244922E+02  2.659263150E+02  6.612821491E-01 
        25  1.649617427E-02  1.139938279E-01  1.547769530E-02  8.280812250E+04  2.193102353E+02  3.305861027E+02  2.721550875E+02  2.630892570E+02  6.240175832E-01 
        26  1.811807173E-02  1.143837002E-01  1.797032872E-02  8.352798608E+04  2.247892227E+02  3.308669147E+02  2.726166477E+02  2.614581704E+02  5.904728742E-01 
        27  1.968166241E-02  1.148013513E-01  2.049621310E-02  8.359533502E+04  2.316495645E+02  3.308603332E+02  2.726052759E+02  2.622535479E+02  5.585140903E-01 
        28  2.119101764E-02  1.152299366E-01  2.305322148E-02  8.304363695E+04  2.407735595E+02  3.304987070E+02  2.720096280E+02  2.657121572E+02  5.237388214E-01 
        29  2.266338778E-02  1.156643914E-01  2.563116057E-02  8.241806384E+04  2.495629314E+02  3.301563501E+02  2.714463003E+02  2.686745524E+02  4.893163373E-01 
        30  2.408077791E-02  1.161159634E-01  2.823658064E-02  8.187948065E+04  2.573264775E+02  3.299182785E+02  2.710548882E+02  2.704918003E+02  4.567341032E-01 
        31  2.544088325E-02  1.165921105E-01  3.086849856E-02  8.131111658E+04  2.658169432E+02  3.294897485E+02  2.703522193E+02  2.735718322E+02  4.254057049E-01 
        32  2.674433127E-02  1.170738851E-01  3.352942364E-02  8.071479834E+04  2.742536983E+02  3.290701747E+02  2.696644108E+02  2.771996896E+02  3.964004559E-01 
        33  2.797950643E-02  1.175445507E-01  3.622298897E-02  8.017394684E+04  2.816164507E+02  3.288856241E+02  2.693612525E+02  2.797103219E+02  3.686758860E-01 
        34  2.916313541E-02  1.180056499E-01  3.893937175E-02  7.988154774E+04  2.881476425E+02  3.288929654E+02  2.693723885E+02  2.807932350E+02  3.398907328E-01 
        35  3.031249539E-02  1.184785399E-01  4.167042727E-02  8.000586569E+04  2.948840526E+02  3.288568680E+02  2.693132278E+02  2.820817116E+02  3.110435413E-01 
        36  3.139929926E-02  1.189405785E-01  4.442941843E-02  8.025915121E+04  3.007467448E+02  3.290058609E+02  2.695576211E+02  2.823578442E+02  2.830124703E-01 
        37  3.242013936E-02  1.193808800E-01  4.721660669E-02  8.080696902E+04  3.057914749E+02  3.294112432E+02  2.702222362E+02  2.811664185E+02  2.531255440E-01 
        38  3.340677803E-02  1.198011670E-01  5.002067675E-02  8.214905646E+04  3.086422054E+02  3.302300407E+02  2.715682830E+02  2.773404604E+02  2.241783735E-01 
        39  3.430413654E-02  1.201853153E-01  5.285529857E-02  8.392428638E+04  3.098641634E+02  3.313167915E+02  2.733593445E+02  2.720286093E+02  1.979831764E-01 
        40  3.515433510E-02  1.205874318E-01  5.570324370E-02  8.608668896E+04  3.098058815E+02  3.325694790E+02  2.754306221E+02  2.655837879E+02  1.742290501E-01 
        41  3.592907297E-02  1.209644065E-01  5.857535950E-02  8.850643237E+04  3.084308953E+02  3.338881941E+02  2.776191802E+02  2.585191493E+02  1.553890537E-01 
        42  3.664355424E-02  1.213334730E-01  6.146049591E-02  9.097062646E+04  3.060156946E+02  3.350685997E+02  2.795849957E+02  2.516605282E+02  1.435030489E-01 
        43  3.727845098E-02  1.217084379E-01  6.437276718E-02  9.316869946E+04  3.027843294E+02  3.360340548E+02  2.811976662E+02  2.452564621E+02  1.386033609E-01 
        44  3.781448665E-02  1.220744111E-01  6.730672953E-02  9.482378662E+04  2.992103901E+02  3.367939243E+02  2.824703627E+02  2.402546611E+02  1.420843182E-01 
        45  3.826762164E-02  1.224563704E-01  7.025293559E-02  9.588450635E+04  2.958593588E+02  3.373598363E+02  2.834199777E+02  2.366851003E+02  1.505490264E-01 
        46  3.856443464E-02  1.228195695E-01  7.317567491E-02  9.648252734E+04  2.935990219E+02  3.376948547E+02  2.839831848E+02  2.343925095E+02  1.576896608E-01 
        47  3.882754171E-02  1.231963568E-01  7.616928387E-02  9.671223492E+04  2.914917641E+02  3.381987129E+02  2.848331162E+02  2.317666892E+02  1.632811934E-01 
        48  3.896508106E-02  1.235573809E-01  7.913505459E-02  9.665102734E+04  2.862967834E+02  3.393672714E+02  2.868202972E+02  2.234740601E+02  1.691799872E-01 
        49  3.903512947E-02  1.239238609E-01  8.213137167E-02  9.656682373E+04  2.746432331E+02  3.417166293E+02  2.908356469E+02  2.029661728E+02  1.819504567E-01 
        50  3.900153017E-02  1.243001337E-01  8.510504302E-02  9.641534552E+04  2.558301316E+02  3.455043975E+02  2.973270090E+02  1.670925379E+02  1.927836628E-01 
        51  3.889299026E-02  1.246700891E-01  8.806950082E-02  9.640974231E+04  2.399129822E+02  3.492919960E+02  3.038650260E+02  1.198518938E+02  1.534898957E-01 
        52  3.870303970E-02  1.250405990E-01  9.105247242E-02  9.645358789E+04  2.335553408E+02  3.520753841E+02  3.086977420E+02  7.826045060E+01  1.408348884E-02 
        53  3.847530202E-02  1.253810613E-01  9.402032493E-02  9.721261026E+04  2.340828116E+02  3.534106793E+02  3.110368145E+02  4.502105585E+01 -4.433384556E-01 
        54  3.809583015E-02  1.257752167E-01  9.695318516E-02  9.722294336E+04  2.273509254E+02  3.534302597E+02  3.110676193E+02  4.024245596E+01 -4.927957593E-01 
        55  3.767199372E-02  1.261489404E-01  9.992435767E-02  9.780926489E+04  2.379408741E+02  3.525797768E+02  3.095714016E+02  4.801360333E+01 -1.490727192E+00 
        56  3.723780727E-02  1.265196365E-01  1.028569506E-01  1.002976866E+05  2.487710616E+02  3.524533718E+02  3.093488811E+02  5.926318662E+01 -1.380984896E+00 
        57  3.672955052E-02  1.269046997E-01  1.057947981E-01  1.021034635E+05  2.493993917E+02  3.514466410E+02  3.075847597E+02  1.022115653E+02 -2.164307335E-01 
        58  3.615520807E-02  1.273091289E-01  1.087154776E-01  1.029893274E+05  2.410114069E+02  3.490763102E+02  3.034537077E+02  1.508329530E+02  2.202183912E-01 
        59  3.556812424E-02  1.277144368E-01  1.116309472E-01  1.043521462E+05  2.462775252E+02  3.453788397E+02  2.970605569E+02  1.853208431E+02  2.935565668E-01 
        60  3.495651588E-02  1.281329458E-01  1.145394580E-01  1.059740049E+05  2.547181997E+02  3.430490084E+02  2.930624919E+02  1.980728769E+02  2.806643103E-01 
        61  3.433795015E-02  1.285471243E-01  1.174457346E-01  1.073688634E+05  2.573904293E+02  3.426720915E+02  2.924164453E+02  1.956068852E+02  2.564256138E-01 
        62  3.376061330E-02  1.289460490E-01  1.203607660E-01  1.081117753E+05  2.587924347E+02  3.430807691E+02  2.931136496E+02  1.902615879E+02  2.301508849E-01 
        63  3.331803132E-02  1.293309423E-01  1.232882868E-01  1.082820430E+05  2.642281588E+02  3.432410270E+02  2.933874818E+02  1.921224311E+02  2.039220931E-01 
        64  3.310586596E-02  1.296649637E-01  1.262581306E-01  1.081578851E+05  2.690570996E+02  3.433092976E+02  2.935043175E+02  1.976950138E+02  1.953610063E-01 
        65  3.306639982E-02  1.299493947E-01  1.292495641E-01  1.079810520E+05  2.715503814E+02  3.432632107E+02  2.934255145E+02  2.012189827E+02  1.943933815E-01 
        66  3.322486525E-02  1.302097713E-01  1.322380794E-01  1.078525752E+05  2.737597128E+02  3.429310315E+02  2.928581014E+02  2.018474761E+02  1.852833506E-01 
        67  3.356462385E-02  1.304573038E-01  1.352130229E-01  1.076950703E+05  2.740757205E+02  3.428030509E+02  2.926395605E+02  2.028824384E+02  1.893302576E-01 
        68  3.400410102E-02  1.306751199E-01  1.381765647E-01  1.075527267E+05  2.745767841E+02  3.426960464E+02  2.924568908E+02  2.037255232E+02  1.913765583E-01 
        69  3.451963359E-02  1.308741206E-01  1.411278790E-01  1.072890223E+05  2.753885860E+02  3.426136456E+02  2.923161862E+02  2.042237258E+02  1.904446338E-01 
        70  3.508991352E-02  1.310576265E-01  1.440660380E-01  1.069080287E+05  2.760882678E+02  3.425850101E+02  2.922673776E+02  2.052993155E+02  1.923710990E-01 
        71  3.570211579E-02  1.312503676E-01  1.470000000E-01  1.063054766E+05  2.779875031E+02  3.423539200E+02  2.918701019E+02  2.077334309E+02  1.916055735E-01 
        72 -2.843361623E-02  1.708417341E-01 -4.258217492E-02  8.217037988E+04  1.832162676E+02  3.300743341E+02  2.713105068E+02  3.437783022E+02  1.008725692E+00 
        73 -2.838826984E-02  1.709653765E-01 -3.916427879E-02  8.215965839E+04  1.840135729E+02  3.299944425E+02  2.711792667E+02  3.448091931E+02  1.007965638E+00 
        74 -2.835908450E-02  1.711140563E-01 -3.574649433E-02  8.230182813E+04  1.838483698E+02  3.301221387E+02  2.713893375E+02  3.432647760E+02  1.005800352E+00 
        75 -2.838361088E-02  1.712589164E-01 -3.232950605E-02  8.269533374E+04  1.844777999E+02  3.302445774E+02  2.715909100E+02  3.447898064E+02  1.006886698E+00 
        76 -2.841360827E-02  1.714319125E-01 -2.891476756E-02  8.314054639E+04  1.823568568E+02  3.306575432E+02  2.722704697E+02  3.403443427E+02  1.006215803E+00 
        77 -2.833774301E-02  1.716334782E-01 -2.549995819E-02  8.364704300E+04  1.814484941E+02  3.309575564E+02  2.727648385E+02  3.386606126E+02  1.006395373E+00 
        78 -2.791452343E-02  1.719215161E-01 -2.212016887E-02  8.402547754E+04  1.817921267E+02  3.309983234E+02  2.728319979E+02  3.410304642E+02  1.009158146E+00 
        79 -2.700703325E-02  1.722886754E-01 -1.884820631E-02  8.404603125E+04  1.806757050E+02  3.310350914E+02  2.728926125E+02  3.410112267E+02  1.012982834E+00 
        80 -2.544395246E-02  1.727209334E-01 -1.584518523E-02  8.328828192E+04  1.808825405E+02  3.307029164E+02  2.723451843E+02  3.418257847E+02  1.013530054E+00 
        81 -2.351536464E-02  1.732363399E-01 -1.306823492E-02  8.141540466E+04  1.852184096E+02  3.295919830E+02  2.705188147E+02  3.474534942E+02  1.008942096E+00 
        82 -2.134527601E-02  1.737374909E-01 -1.047435973E-02  7.881837247E+04  1.907890817E+02  3.280642097E+02  2.680180011E+02  3.554934840E+02  1.005174745E+00 
        83 -1.897326710E-02  1.742189522E-01 -8.035177519E-03  7.614482446E+04  1.976267031E+02  3.265296242E+02  2.655166564E+02  3.639216624E+02  9.986943412E-01 
        84 -1.652827274E-02  1.746780172E-01 -5.688541800E-03  7.413144489E+04  2.043614657E+02  3.251738224E+02  2.633169820E+02  3.695234723E+02  9.874038352E-01 
        85 -1.397929867E-02  1.751251779E-01 -3.446989688E-03  7.294861438E+04  2.080246344E+02  3.245573483E+02  2.623195710E+02  3.723344760E+02  9.804308116E-01 
        86 -1.139011487E-02  1.755573757E-01 -1.256774906E-03  7.365825952E+04  2.111252759E+02  3.247837353E+02  2.626862578E+02  3.710073910E+02  9.670212176E-01 
        87 -8.734274343E-03  1.759085237E-01  8.667805443E-04  7.785461426E+04  2.046614139E+02  3.275575385E+02  2.671995637E+02  3.588964047E+02  9.655925622E-01 
        88 -6.073383534E-03  1.762548475E-01  2.984781313E-03  8.801660931E+04  1.912269731E+02  3.332174492E+02  2.765136952E+02  3.324490192E+02  9.663581741E-01 
        89 -3.359730182E-03  1.765819110E-01  5.053045394E-03  9.779651617E+04  1.762456926E+02  3.381466877E+02  2.847462170E+02  3.060497472E+02  9.817521959E-01 
        90 -6.741955509E-04  1.768270807E-01  7.130208361E-03  9.699939028E+04  1.669461803E+02  3.378533046E+02  2.842520866E+02  3.113724852E+02  1.021105809E+00 
        91  2.027043660E-03  1.770783858E-01  9.208570588E-03  7.922700745E+04  1.945715961E+02  3.280263813E+02  2.679589632E+02  3.581938792E+02  9.988898953E-01 
        92  4.731686997E-03  1.772422585E-01  1.127155269E-02  7.415969281E+04  2.088512177E+02  3.252511148E+02  2.634431019E+02  3.716326478E+02  9.756711441E-01 
        93  7.454465044E-03  1.773874983E-01  1.334309669E-02  7.406780310E+04  2.083692731E+02  3.250264162E+02  2.630802870E+02  3.711081731E+02  9.765106444E-01 
        94  1.015989937E-02  1.775222933E-01  1.545596277E-02  7.089028834E+04  2.172604051E+02  3.231274081E+02  2.600198556E+02  3.817694000E+02  9.685362733E-01 
        95  1.284858280E-02  1.775661421E-01  1.756817794E-02  6.726233826E+04  2.292664104E+02  3.206010520E+02  2.559717387E+02  3.937501690E+02  9.538560649E-01 
        96  1.551966693E-02  1.776138061E-01  1.970369132E-02  6.426162000E+04  2.393944607E+02  3.183670247E+02  2.524162123E+02  4.029854674E+02  9.403598690E-01 
        97  1.817410325E-02  1.776258069E-01  2.186017323E-02  6.168299609E+04  2.460858021E+02  3.168396688E+02  2.499965596E+02  4.084287477E+02  9.302577656E-01 
        98  2.080993586E-02  1.775631240E-01  2.403936301E-02  5.979999634E+04  2.541782775E+02  3.154458656E+02  2.478050251E+02  4.154081392E+02  9.197186138E-01 
        99  2.341570779E-02  1.774969016E-01  2.625394818E-02  5.932025696E+04  2.593014350E+02  3.151392994E+02  2.473291020E+02  4.178665028E+02  9.085230064E-01 
       100  2.600295182E-02  1.773818036E-01  2.848806157E-02  6.097907300E+04  2.596617041E+02  3.166824684E+02  2.497636576E+02  4.114180584E+02  8.923575170E-01 
       101  2.856627515E-02  1.771883875E-01  3.074502562E-02  6.626211011E+04  2.557058191E+02  3.203578033E+02  2.556395855E+02  3.958820496E+02  8.725687787E-01 
       102  3.110662233E-02  1.769811535E-01  3.302644514E-02  7.475645557E+04  2.455620785E+02  3.260032215E+02  2.647419062E+02  3.692303848E+02  8.522338253E-01 
       103  3.362247542E-02  1.767159818E-01  3.532849163E-02  8.162546887E+04  2.410505691E+02  3.301431751E+02  2.714471102E+02  3.501248465E+02  8.289296422E-01 
       104  3.610895472E-02  1.763647845E-01  3.765120331E-02  8.279050366E+04  2.463382456E+02  3.306396003E+02  2.722468433E+02  3.490740566E+02  8.089114353E-01 
       105  3.856497337E-02  1.759966372E-01  4.000321012E-02  8.019143134E+04  2.555919570E+02  3.291138579E+02  2.697405094E+02  3.562810999E+02  7.910882281E-01 
       106  4.103059304E-02  1.755360248E-01  4.234569910E-02  7.793164144E+04  2.646740793E+02  3.276632951E+02  2.673636894E+02  3.646898879E+02  7.759049342E-01 
       107  4.340106546E-02  1.750377176E-01  4.474435622E-02  7.839838712E+04  2.675970873E+02  3.281545179E+02  2.681673746E+02  3.632848077E+02  7.632152236E-01 
       108  4.575540032E-02  1.745445103E-01  4.717695363E-02  8.191937708E+04  2.669021690E+02  3.303119230E+02  2.717112045E+02  3.528355451E+02  7.459308263E-01 
       109  4.807037784E-02  1.739953488E-01  4.963532790E-02  8.828818335E+04  2.627849379E+02  3.337497349E+02  2.774026060E+02  3.361049061E+02  7.301509511E-01 
       110  5.034733117E-02  1.734133857E-01  5.212084081E-02  9.510461963E+04  2.585795135E+02  3.371709423E+02  2.831118889E+02  3.171189842E+02  7.127920240E-01 
       111  5.258765486E-02  1.728405975E-01  5.464144749E-02  9.966136621E+04  2.574309502E+02  3.394124451E+02  2.868821564E+02  3.051151962E+02  6.975872628E-01 
       112  5.479076840E-02  1.722430532E-01  5.718902978E-02  1.024967246E+05  2.574363375E+02  3.408646364E+02  2.893409061E+02  2.989078112E+02  6.879407372E-01 
       113  5.694737683E-02  1.716020731E-01  5.976586917E-02  1.054241929E+05  2.568199091E+02  3.423499780E+02  2.918685386E+02  2.903732562E+02  6.778879636E-01 
       114  5.911848447E-02  1.709340834E-01  6.233872565E-02  1.089060635E+05  2.561715649E+02  3.439055277E+02  2.945253923E+02  2.811758633E+02  6.673559433E-01 
       115  6.119351897E-02  1.703313828E-01  6.496775561E-02  1.117221838E+05  2.550651817E+02  3.451587648E+02  2.966761451E+02  2.744180374E+02  6.628116798E-01 
       116  6.319798910E-02  1.696485115E-01  6.765543605E-02  1.137867467E+05  2.544087634E+02  3.459720778E+02  2.980753779E+02  2.701211681E+02  6.596871559E-01 
       117  6.520189851E-02  1.689621155E-01  7.034628384E-02  1.157094321E+05  2.538604736E+02  3.466853514E+02  2.993055964E+02  2.655890217E+02  6.563616842E-01 
       118  6.717992039E-02  1.682884043E-01  7.305807409E-02  1.172524932E+05  2.520976210E+02  3.473676939E+02  3.004849939E+02  2.598178139E+02  6.569429636E-01 
       119  6.910755662E-02  1.675987334E-01  7.579818779E-02  1.184714860E+05  2.492491903E+02  3.480111926E+02  3.015989892E+02  2.561411531E+02  6.646584468E-01 
       120  7.101404689E-02  1.668389198E-01  7.852135391E-02  1.194501723E+05  2.464885502E+02  3.484583733E+02  3.023745954E+02  2.543710115E+02  6.740070367E-01 
