nodenumber     x-coordinate     y-coordinate     z-coordinate         pressure velocity-magnitude      sound-speed      temperature rel-velocity-magnitude relative-velocity-angle 
         1 -2.216901913E-02  1.039879580E-01 -4.300600202E-02  8.754047182E+04  1.537785032E+02  3.330644732E+02  2.762483458E+02  2.354436208E+02  8.592104078E-01 
         2 -2.197401757E-02  1.042260031E-01 -4.002397295E-02  8.745457040E+04  1.544757768E+02  3.330010204E+02  2.761429753E+02  2.363628678E+02  8.587894903E-01 
         3 -2.150271627E-02  1.045375264E-01 -3.708169353E-02  8.732519299E+04  1.551927264E+02  3.329241927E+02  2.760156069E+02  2.373627826E+02  8.587533990E-01 
         4 -2.072290556E-02  1.049359494E-01 -3.421635317E-02  8.719255103E+04  1.556538527E+02  3.328749089E+02  2.759339113E+02  2.373841748E+02  8.568099812E-01 
         5 -1.964621854E-02  1.053757771E-01 -3.145501365E-02  8.709729907E+04  1.563301587E+02  3.328277864E+02  2.758558421E+02  2.384574504E+02  8.572493028E-01 
         6 -1.833909717E-02  1.058829391E-01 -2.880182754E-02  8.698754541E+04  1.570432830E+02  3.327644520E+02  2.757509065E+02  2.393571601E+02  8.570886422E-01 
         7 -1.686396899E-02  1.064019756E-01 -2.624136390E-02  8.681838574E+04  1.582097688E+02  3.326415091E+02  2.755471983E+02  2.406102538E+02  8.554702736E-01 
         8 -1.524276490E-02  1.069101094E-01 -2.376908005E-02  8.665063940E+04  1.590252640E+02  3.325590587E+02  2.754105139E+02  2.416124811E+02  8.548780773E-01 
         9 -1.353040875E-02  1.074492491E-01 -2.136449246E-02  8.644099634E+04  1.603013742E+02  3.324298453E+02  2.751964996E+02  2.428941698E+02  8.531235838E-01 
        10 -1.175719847E-02  1.079385502E-01 -1.899452623E-02  8.622887897E+04  1.613587790E+02  3.323359375E+02  2.750411115E+02  2.439421113E+02  8.515140004E-01 
        11 -9.920451205E-03  1.084473482E-01 -1.667649769E-02  8.609378455E+04  1.625425937E+02  3.322698487E+02  2.749318429E+02  2.443476284E+02  8.471265209E-01 
        12 -8.053093039E-03  1.089314126E-01 -1.437870322E-02  8.626140793E+04  1.627404130E+02  3.323988360E+02  2.751452755E+02  2.442369876E+02  8.464382780E-01 
        13 -6.139911673E-03  1.093816015E-01 -1.211111235E-02  8.671333740E+04  1.623765736E+02  3.326201696E+02  2.755118618E+02  2.431175585E+02  8.449325766E-01 
        14 -4.213714023E-03  1.098625599E-01 -9.853315987E-03  8.757679590E+04  1.605411987E+02  3.330476341E+02  2.762205048E+02  2.405050192E+02  8.465591632E-01 
        15 -2.267252226E-03  1.102821410E-01 -7.616721013E-03  8.855730908E+04  1.563204975E+02  3.335806999E+02  2.771054392E+02  2.370737343E+02  8.589245789E-01 
        16 -3.058463972E-04  1.106716081E-01 -5.380345181E-03  8.932425098E+04  1.501441708E+02  3.339578896E+02  2.777326450E+02  2.350250330E+02  8.868346866E-01 
        17  1.649896870E-03  1.110991589E-01 -3.144821902E-03  8.747786707E+04  1.452159187E+02  3.330757518E+02  2.762686768E+02  2.405926790E+02  9.334256388E-01 
        18  3.605378217E-03  1.114680886E-01 -8.997268064E-04  7.572510181E+04  1.748686652E+02  3.263815684E+02  2.652751398E+02  2.863564067E+02  9.444357101E-01 
        19  5.548952344E-03  1.118349081E-01  1.356589372E-03  7.009723828E+04  2.115353228E+02  3.225575912E+02  2.590962381E+02  3.100297079E+02  8.435044228E-01 
        20  7.472030685E-03  1.121892539E-01  3.633809071E-03  7.295627916E+04  2.141192514E+02  3.244490268E+02  2.621492633E+02  2.990264989E+02  7.839495323E-01 
        21  9.366594022E-03  1.125505666E-01  5.932977735E-03  7.655808923E+04  2.076562877E+02  3.270615418E+02  2.663848538E+02  2.827978849E+02  7.540853955E-01 
        22  1.122147558E-02  1.129077905E-01  8.263617067E-03  7.898728829E+04  2.061147975E+02  3.286857123E+02  2.690356285E+02  2.717660649E+02  7.208160945E-01 
        23  1.303284284E-02  1.132507638E-01  1.062953057E-02  8.055495898E+04  2.084015823E+02  3.296157384E+02  2.705601147E+02  2.678377812E+02  6.949876114E-01 
        24  1.479928419E-02  1.136234762E-01  1.303021626E-02  8.174276578E+04  2.138877099E+02  3.301431628E+02  2.714268634E+02  2.659370254E+02  6.612775591E-01 
        25  1.649617427E-02  1.139938279E-01  1.547769530E-02  8.280810999E+04  2.193322163E+02  3.305868964E+02  2.721564436E+02  2.631464672E+02  6.241079373E-01 
        26  1.811807173E-02  1.143837002E-01  1.797032872E-02  8.352627551E+04  2.248129404E+02  3.308646927E+02  2.726130672E+02  2.614869494E+02  5.904550543E-01 
        27  1.968166241E-02  1.148013513E-01  2.049621310E-02  8.359413306E+04  2.316569536E+02  3.308550193E+02  2.725965681E+02  2.622589047E+02  5.585180921E-01 
        28  2.119101764E-02  1.152299366E-01  2.305322148E-02  8.304832506E+04  2.407317176E+02  3.305015798E+02  2.720143643E+02  2.656782019E+02  5.238784493E-01 
        29  2.266338778E-02  1.156643914E-01  2.563116057E-02  8.242201404E+04  2.495765829E+02  3.301548285E+02  2.714438283E+02  2.687192640E+02  4.894127862E-01 
        30  2.408077791E-02  1.161159634E-01  2.823658064E-02  8.188111902E+04  2.573510442E+02  3.299180980E+02  2.710546057E+02  2.705369589E+02  4.567590798E-01 
        31  2.544088325E-02  1.165921105E-01  3.086849856E-02  8.131211572E+04  2.658028467E+02  3.294970455E+02  2.703641915E+02  2.735339828E+02  4.253291790E-01 
        32  2.674433127E-02  1.170738851E-01  3.352942364E-02  8.071464636E+04  2.742830322E+02  3.290685034E+02  2.696616886E+02  2.771812575E+02  3.961895872E-01 
        33  2.797950643E-02  1.175445507E-01  3.622298897E-02  8.017086832E+04  2.817206196E+02  3.288684192E+02  2.693331550E+02  2.797825576E+02  3.684258484E-01 
        34  2.916313541E-02  1.180056499E-01  3.893937175E-02  7.987556744E+04  2.881940618E+02  3.288832373E+02  2.693565329E+02  2.808368675E+02  3.398197343E-01 
        35  3.031249539E-02  1.184785399E-01  4.167042727E-02  7.999968848E+04  2.948523422E+02  3.288602805E+02  2.693187809E+02  2.820653038E+02  3.111294520E-01 
        36  3.139929926E-02  1.189405785E-01  4.442941843E-02  8.025376724E+04  3.007545228E+02  3.290028508E+02  2.695527433E+02  2.823919970E+02  2.830849722E-01 
        37  3.242013936E-02  1.193808800E-01  4.721660669E-02  8.080519609E+04  3.057897543E+02  3.294100210E+02  2.702202882E+02  2.811959965E+02  2.532484871E-01 
        38  3.340677803E-02  1.198011670E-01  5.002067675E-02  8.215174786E+04  3.086322606E+02  3.302311094E+02  2.715699947E+02  2.773504679E+02  2.242721081E-01 
        39  3.430413654E-02  1.201853153E-01  5.285529857E-02  8.392626392E+04  3.098601751E+02  3.313150196E+02  2.733563719E+02  2.720250988E+02  1.979875802E-01 
        40  3.515433510E-02  1.205874318E-01  5.570324370E-02  8.609006836E+04  3.097855930E+02  3.325715809E+02  2.754341183E+02  2.655498962E+02  1.742044808E-01 
        41  3.592907297E-02  1.209644065E-01  5.857535950E-02  8.851121265E+04  3.083850198E+02  3.338973236E+02  2.776343632E+02  2.584336443E+02  1.552986908E-01 
        42  3.664355424E-02  1.213334730E-01  6.146049591E-02  9.097368701E+04  3.059709578E+02  3.350786920E+02  2.796018152E+02  2.515719862E+02  1.433980630E-01 
        43  3.727845098E-02  1.217084379E-01  6.437276718E-02  9.316777856E+04  3.027711592E+02  3.360390949E+02  2.812060919E+02  2.452075205E+02  1.384787820E-01 
        44  3.781448665E-02  1.220744111E-01  6.730672953E-02  9.482228906E+04  2.992347889E+02  3.367942772E+02  2.824709482E+02  2.402480760E+02  1.419087681E-01 
        45  3.826762164E-02  1.224563704E-01  7.025293559E-02  9.588753705E+04  2.958927903E+02  3.373621683E+02  2.834238312E+02  2.367119706E+02  1.504589994E-01 
        46  3.856443464E-02  1.228195695E-01  7.317567491E-02  9.648583984E+04  2.935983582E+02  3.377018280E+02  2.839949036E+02  2.344054565E+02  1.577440724E-01 
        47  3.882754171E-02  1.231963568E-01  7.616928387E-02  9.670879221E+04  2.915068603E+02  3.381963676E+02  2.848291434E+02  2.317887655E+02  1.632789509E-01 
        48  3.896508106E-02  1.235573809E-01  7.913505459E-02  9.664455469E+04  2.862738953E+02  3.393679810E+02  2.868214874E+02  2.234515533E+02  1.692435332E-01 
        49  3.903512947E-02  1.239238609E-01  8.213137167E-02  9.656470728E+04  2.746010895E+02  3.417186947E+02  2.908391416E+02  2.029096122E+02  1.820299218E-01 
        50  3.900153017E-02  1.243001337E-01  8.510504302E-02  9.642100320E+04  2.557063167E+02  3.455173751E+02  2.973495939E+02  1.669396985E+02  1.933606516E-01 
        51  3.889299026E-02  1.246700891E-01  8.806950082E-02  9.641809283E+04  2.399175668E+02  3.492881942E+02  3.038583899E+02  1.197657061E+02  1.531332559E-01 
        52  3.870303970E-02  1.250405990E-01  9.105247242E-02  9.646259448E+04  2.334859395E+02  3.520856590E+02  3.087158051E+02  7.821649730E+01  1.505017755E-02 
        53  3.847530202E-02  1.253810613E-01  9.402032493E-02  9.722792618E+04  2.342129117E+02  3.534199464E+02  3.110530775E+02  4.511911526E+01 -4.455451937E-01 
        54  3.809583015E-02  1.257752167E-01  9.695318516E-02  9.722166602E+04  2.273966675E+02  3.534307747E+02  3.110685921E+02  4.020385504E+01 -4.911101065E-01 
        55  3.767199372E-02  1.261489404E-01  9.992435767E-02  9.778888037E+04  2.377125411E+02  3.525727091E+02  3.095589747E+02  4.805387068E+01 -1.496826367E+00 
        56  3.723780727E-02  1.265196365E-01  1.028569506E-01  1.002993878E+05  2.484305019E+02  3.524585896E+02  3.093580076E+02  5.908348922E+01 -1.390321238E+00 
        57  3.672955052E-02  1.269046997E-01  1.057947981E-01  1.021540396E+05  2.493988583E+02  3.514785099E+02  3.076405578E+02  1.018276732E+02 -2.205602463E-01 
        58  3.615520807E-02  1.273091289E-01  1.087154776E-01  1.030199167E+05  2.413079181E+02  3.491230631E+02  3.035350466E+02  1.507052045E+02  2.172522042E-01 
        59  3.556812424E-02  1.277144368E-01  1.116309472E-01  1.043330923E+05  2.464690130E+02  3.454122891E+02  2.971182394E+02  1.854357491E+02  2.926847343E-01 
        60  3.495651588E-02  1.281329458E-01  1.145394580E-01  1.059325449E+05  2.549077420E+02  3.430421581E+02  2.930507522E+02  1.983547130E+02  2.804363617E-01 
        61  3.433795015E-02  1.285471243E-01  1.174457346E-01  1.073375421E+05  2.575292387E+02  3.426533108E+02  2.923844242E+02  1.958393283E+02  2.564023321E-01 
        62  3.376061330E-02  1.289460490E-01  1.203607660E-01  1.081035164E+05  2.586498580E+02  3.430838826E+02  2.931189597E+02  1.902650836E+02  2.310865612E-01 
        63  3.331803132E-02  1.293309423E-01  1.232882868E-01  1.083017546E+05  2.640746499E+02  3.432381220E+02  2.933824937E+02  1.918898196E+02  2.040797224E-01 
        64  3.310586596E-02  1.296649637E-01  1.262581306E-01  1.081803767E+05  2.689540043E+02  3.433083539E+02  2.935026791E+02  1.974157201E+02  1.950028617E-01 
        65  3.306639982E-02  1.299493947E-01  1.292495641E-01  1.079988129E+05  2.716283700E+02  3.432524624E+02  2.934071130E+02  2.012452293E+02  1.940026248E-01 
        66  3.322486525E-02  1.302097713E-01  1.322380794E-01  1.078655306E+05  2.736966395E+02  3.429520283E+02  2.928940125E+02  2.018678906E+02  1.857363555E-01 
        67  3.356462385E-02  1.304573038E-01  1.352130229E-01  1.076972494E+05  2.741481363E+02  3.428010426E+02  2.926361422E+02  2.028593313E+02  1.888161817E-01 
        68  3.400410102E-02  1.306751199E-01  1.381765647E-01  1.075552339E+05  2.745568664E+02  3.427037582E+02  2.924700565E+02  2.037252979E+02  1.915064754E-01 
        69  3.451963359E-02  1.308741206E-01  1.411278790E-01  1.072874268E+05  2.754297297E+02  3.426058211E+02  2.923028309E+02  2.042650337E+02  1.903409457E-01 
        70  3.508991352E-02  1.310576265E-01  1.440660380E-01  1.069017733E+05  2.761040862E+02  3.425781336E+02  2.922556329E+02  2.053213048E+02  1.923481394E-01 
        71  3.570211579E-02  1.312503676E-01  1.470000000E-01  1.063048379E+05  2.779585800E+02  3.423534431E+02  2.918693123E+02  2.077223358E+02  1.917355265E-01 
        72 -2.843361623E-02  1.708417341E-01 -4.258217492E-02  8.216899194E+04  1.832224536E+02  3.300728912E+02  2.713081141E+02  3.437747869E+02  1.008699708E+00 
        73 -2.838826984E-02  1.709653765E-01 -3.916427879E-02  8.215365625E+04  1.839937129E+02  3.299936671E+02  2.711780303E+02  3.448022552E+02  1.008029510E+00 
        74 -2.835908450E-02  1.711140563E-01 -3.574649433E-02  8.229681262E+04  1.838310165E+02  3.301207194E+02  2.713870196E+02  3.432508111E+02  1.005833574E+00 
        75 -2.838361088E-02  1.712589164E-01 -3.232950605E-02  8.269158643E+04  1.844982548E+02  3.302406797E+02  2.715845060E+02  3.448046560E+02  1.006858967E+00 
        76 -2.841360827E-02  1.714319125E-01 -2.891476756E-02  8.313416260E+04  1.823403935E+02  3.306603007E+02  2.722750449E+02  3.403405647E+02  1.006315678E+00 
        77 -2.833774301E-02  1.716334782E-01 -2.549995819E-02  8.364188943E+04  1.814148566E+02  3.309562243E+02  2.727626636E+02  3.387146991E+02  1.006597056E+00 
        78 -2.791452343E-02  1.719215161E-01 -2.212016887E-02  8.402387500E+04  1.818033848E+02  3.310005417E+02  2.728356409E+02  3.409339542E+02  1.008945208E+00 
        79 -2.700703325E-02  1.722886754E-01 -1.884820631E-02  8.403826709E+04  1.807541165E+02  3.310237722E+02  2.728739443E+02  3.411640129E+02  1.012965374E+00 
        80 -2.544395246E-02  1.727209334E-01 -1.584518523E-02  8.327777240E+04  1.807542696E+02  3.307048209E+02  2.723482742E+02  3.416768825E+02  1.013694769E+00 
        81 -2.351536464E-02  1.732363399E-01 -1.306823492E-02  8.142846361E+04  1.852601345E+02  3.295948350E+02  2.705235270E+02  3.474864596E+02  1.008864240E+00 
        82 -2.134527601E-02  1.737374909E-01 -1.047435973E-02  7.882445030E+04  1.907536200E+02  3.280627745E+02  2.680158701E+02  3.555838271E+02  1.005518533E+00 
        83 -1.897326710E-02  1.742189522E-01 -8.035177519E-03  7.614943759E+04  1.975231525E+02  3.265444850E+02  2.655408491E+02  3.637835208E+02  9.987758757E-01 
        84 -1.652827274E-02  1.746780172E-01 -5.688541800E-03  7.416903174E+04  2.043907967E+02  3.251878538E+02  2.633397648E+02  3.696580038E+02  9.876347696E-01 
        85 -1.397929867E-02  1.751251779E-01 -3.446989688E-03  7.294856958E+04  2.080847073E+02  3.245575686E+02  2.623198400E+02  3.722934923E+02  9.801126644E-01 
        86 -1.139011487E-02  1.755573757E-01 -1.256774906E-03  7.364978979E+04  2.109500165E+02  3.247912359E+02  2.626983566E+02  3.709360213E+02  9.674664121E-01 
        87 -8.734274343E-03  1.759085237E-01  8.667805443E-04  7.787552130E+04  2.047606950E+02  3.275566700E+02  2.671983836E+02  3.590060875E+02  9.655181337E-01 
        88 -6.073383534E-03  1.762548475E-01  2.984781313E-03  8.801566138E+04  1.911404486E+02  3.332274349E+02  2.765303551E+02  3.325106502E+02  9.667102746E-01 
        89 -3.359730182E-03  1.765819110E-01  5.053045394E-03  9.777476605E+04  1.766553553E+02  3.380934377E+02  2.846565530E+02  3.061743984E+02  9.806306679E-01 
        90 -6.741955509E-04  1.768270807E-01  7.130208361E-03  9.705649241E+04  1.662543726E+02  3.379528705E+02  2.844193703E+02  3.110823422E+02  1.023167497E+00 
        91  2.027043660E-03  1.770783858E-01  9.208570588E-03  7.928239361E+04  1.952534841E+02  3.279613017E+02  2.678529333E+02  3.584366742E+02  9.968532718E-01 
        92  4.731686997E-03  1.772422585E-01  1.127155269E-02  7.417791797E+04  2.086577770E+02  3.252878551E+02  2.635023615E+02  3.718893864E+02  9.768223392E-01 
        93  7.454465044E-03  1.773874983E-01  1.334309669E-02  7.407508939E+04  2.081975573E+02  3.250332573E+02  2.630911683E+02  3.709150699E+02  9.766599119E-01 
        94  1.015989937E-02  1.775222933E-01  1.545596277E-02  7.090992624E+04  2.171690111E+02  3.231422162E+02  2.600431827E+02  3.816585367E+02  9.686291909E-01 
        95  1.284858280E-02  1.775661421E-01  1.756817794E-02  6.725389337E+04  2.290085478E+02  3.206339750E+02  2.560241878E+02  3.935585930E+02  9.543354833E-01 
        96  1.551966693E-02  1.776138061E-01  1.970369132E-02  6.423445062E+04  2.394662380E+02  3.183377495E+02  2.523702476E+02  4.031502395E+02  9.405192966E-01 
        97  1.817410325E-02  1.776258069E-01  2.186017323E-02  6.166682166E+04  2.462424946E+02  3.168053284E+02  2.499424109E+02  4.085283084E+02  9.299270585E-01 
        98  2.080993586E-02  1.775631240E-01  2.403936301E-02  5.980076917E+04  2.542017698E+02  3.154427905E+02  2.478001690E+02  4.152727060E+02  9.193330985E-01 
        99  2.341570779E-02  1.774969016E-01  2.625394818E-02  5.932645471E+04  2.593725891E+02  3.151266375E+02  2.473092508E+02  4.179924326E+02  9.085790701E-01 
       100  2.600295182E-02  1.773818036E-01  2.848806157E-02  6.098563330E+04  2.597003927E+02  3.166718168E+02  2.497471771E+02  4.115835905E+02  8.926007524E-01 
       101  2.856627515E-02  1.771883875E-01  3.074502562E-02  6.626731934E+04  2.557671127E+02  3.203593826E+02  2.556418648E+02  3.960222063E+02  8.725682162E-01 
       102  3.110662233E-02  1.769811535E-01  3.302644514E-02  7.474140088E+04  2.457061834E+02  3.259986115E+02  2.647339487E+02  3.694007149E+02  8.520116564E-01 
       103  3.362247542E-02  1.767159818E-01  3.532849163E-02  8.160021375E+04  2.410714631E+02  3.301381578E+02  2.714386868E+02  3.500107489E+02  8.286838699E-01 
       104  3.610895472E-02  1.763647845E-01  3.765120331E-02  8.278288025E+04  2.462524152E+02  3.306411414E+02  2.722491651E+02  3.489829741E+02  8.090569982E-01 
       105  3.856497337E-02  1.759966372E-01  4.000321012E-02  8.020519183E+04  2.554883457E+02  3.291354659E+02  2.697758070E+02  3.562112159E+02  7.913246984E-01 
       106  4.103059304E-02  1.755360248E-01  4.234569910E-02  7.794612737E+04  2.647215060E+02  3.276737105E+02  2.673807170E+02  3.645539347E+02  7.754923374E-01 
       107  4.340106546E-02  1.750377176E-01  4.474435622E-02  7.840466763E+04  2.677108476E+02  3.281403314E+02  2.681441338E+02  3.633973822E+02  7.630376315E-01 
       108  4.575540032E-02  1.745445103E-01  4.717695363E-02  8.193190002E+04  2.669010642E+02  3.303168936E+02  2.717195580E+02  3.528543053E+02  7.459863666E-01 
       109  4.807037784E-02  1.739953488E-01  4.963532790E-02  8.829823193E+04  2.627640018E+02  3.337671318E+02  2.774315300E+02  3.360510120E+02  7.301148400E-01 
       110  5.034733117E-02  1.734133857E-01  5.212084081E-02  9.511395313E+04  2.586301956E+02  3.371779118E+02  2.831235657E+02  3.171633320E+02  7.126798816E-01 
       111  5.258765486E-02  1.728405975E-01  5.464144749E-02  9.966950732E+04  2.574718475E+02  3.394144211E+02  2.868855000E+02  3.050314674E+02  6.973244920E-01 
       112  5.479076840E-02  1.722430532E-01  5.718902978E-02  1.024955676E+05  2.574449596E+02  3.408574467E+02  2.893286371E+02  2.988997650E+02  6.879024748E-01 
       113  5.694737683E-02  1.716020731E-01  5.976586917E-02  1.054285034E+05  2.567486272E+02  3.423465269E+02  2.918626673E+02  2.904166069E+02  6.782142892E-01 
       114  5.911848447E-02  1.709340834E-01  6.233872565E-02  1.089125987E+05  2.561086708E+02  3.439100367E+02  2.945330829E+02  2.811509055E+02  6.675621195E-01 
       115  6.119351897E-02  1.703313828E-01  6.496775561E-02  1.117276636E+05  2.551064262E+02  3.451609774E+02  2.966799946E+02  2.743113875E+02  6.625274662E-01 
       116  6.319798910E-02  1.696485115E-01  6.765543605E-02  1.137959856E+05  2.543511257E+02  3.459894013E+02  2.981052623E+02  2.699953470E+02  6.597458236E-01 
       117  6.520189851E-02  1.689621155E-01  7.034628384E-02  1.157030728E+05  2.537582827E+02  3.466967468E+02  2.993252983E+02  2.656516113E+02  6.568236891E-01 
       118  6.717992039E-02  1.682884043E-01  7.305807409E-02  1.172402017E+05  2.521904497E+02  3.473538256E+02  3.004609528E+02  2.599366522E+02  6.567067672E-01 
       119  6.910755662E-02  1.675987334E-01  7.579818779E-02  1.184743322E+05  2.493302951E+02  3.480012057E+02  3.015817127E+02  2.561793551E+02  6.643607467E-01 
       120  7.101404689E-02  1.668389198E-01  7.852135391E-02  1.194528640E+05  2.464338604E+02  3.484662807E+02  3.023882961E+02  2.543192949E+02  6.741869864E-01 
