nodenumber     x-coordinate     y-coordinate     z-coordinate         pressure velocity-magnitude      sound-speed      temperature rel-velocity-magnitude relative-velocity-angle 
         1 -2.216901913E-02  1.039879580E-01 -4.300600202E-02  8.755119403E+04  1.539424168E+02  3.330512890E+02  2.762263499E+02  2.357936786E+02  8.594822831E-01 
         2 -2.197401757E-02  1.042260031E-01 -4.002397295E-02  8.746989801E+04  1.544254903E+02  3.330070300E+02  2.761529007E+02  2.363454232E+02  8.589766517E-01 
         3 -2.150271627E-02  1.045375264E-01 -3.708169353E-02  8.736564905E+04  1.550544549E+02  3.329504273E+02  2.760590525E+02  2.370240946E+02  8.582173414E-01 
         4 -2.072290556E-02  1.049359494E-01 -3.421635317E-02  8.725046692E+04  1.557471907E+02  3.328899312E+02  2.759587946E+02  2.377665231E+02  8.574028555E-01 
         5 -1.964621854E-02  1.053757771E-01 -3.145501365E-02  8.712741528E+04  1.564465470E+02  3.328266287E+02  2.758538127E+02  2.385232854E+02  8.566512410E-01 
         6 -1.833909717E-02  1.058829391E-01 -2.880182754E-02  8.697762720E+04  1.572164712E+02  3.327486706E+02  2.757246118E+02  2.394368920E+02  8.561133072E-01 
         7 -1.686396899E-02  1.064019756E-01 -2.624136390E-02  8.679783081E+04  1.580615625E+02  3.326536388E+02  2.755671339E+02  2.404484520E+02  8.555488531E-01 
         8 -1.524276490E-02  1.069101094E-01 -2.376908005E-02  8.658349414E+04  1.590503271E+02  3.325384250E+02  2.753762946E+02  2.415850024E+02  8.546841089E-01 
         9 -1.353040875E-02  1.074492491E-01 -2.136449246E-02  8.634954504E+04  1.602480969E+02  3.324111872E+02  2.751656308E+02  2.428663967E+02  8.532362077E-01 
        10 -1.175719847E-02  1.079385502E-01 -1.899452623E-02  8.615550092E+04  1.615223830E+02  3.323055930E+02  2.749908121E+02  2.439740670E+02  8.507962478E-01 
        11 -9.920451205E-03  1.084473482E-01 -1.667649769E-02  8.609568585E+04  1.626156797E+02  3.322742268E+02  2.749388735E+02  2.446940470E+02  8.479805465E-01 
        12 -8.053093039E-03  1.089314126E-01 -1.437870322E-02  8.627921530E+04  1.630828640E+02  3.323764100E+02  2.751080196E+02  2.444065926E+02  8.450069199E-01 
        13 -6.139911673E-03  1.093816015E-01 -1.211111235E-02  8.673760962E+04  1.625180130E+02  3.326242666E+02  2.755184937E+02  2.430182748E+02  8.438017890E-01 
        14 -4.213714023E-03  1.098625599E-01 -9.853315987E-03  8.746571484E+04  1.605517282E+02  3.330129242E+02  2.761627407E+02  2.406374035E+02  8.468954191E-01 
        15 -2.267252226E-03  1.102821410E-01 -7.616721013E-03  8.845034229E+04  1.566055651E+02  3.335358524E+02  2.770308943E+02  2.373729725E+02  8.580766432E-01 
        16 -3.058463972E-04  1.106716081E-01 -5.380345181E-03  8.949222681E+04  1.497004519E+02  3.340541496E+02  2.778926449E+02  2.340274334E+02  8.856964111E-01 
        17  1.649896870E-03  1.110991589E-01 -3.144821902E-03  8.720587573E+04  1.464944150E+02  3.328828607E+02  2.759485555E+02  2.433136361E+02  9.354322543E-01 
        18  3.605378217E-03  1.114680886E-01 -8.997268064E-04  7.600076111E+04  1.738117130E+02  3.264626698E+02  2.654062228E+02  2.840554795E+02  9.411176387E-01 
        19  5.548952344E-03  1.118349081E-01  1.356589372E-03  7.020670758E+04  2.073122668E+02  3.229136655E+02  2.596678867E+02  3.061020746E+02  8.498441456E-01 
        20  7.472030685E-03  1.121892539E-01  3.633809071E-03  7.262088797E+04  2.120397606E+02  3.245128948E+02  2.622493026E+02  2.978097748E+02  7.895878896E-01 
        21  9.366594022E-03  1.125505666E-01  5.932977735E-03  7.625590417E+04  2.085885047E+02  3.266864629E+02  2.657730322E+02  2.851154070E+02  7.577545997E-01 
        22  1.122147558E-02  1.129077905E-01  8.263617067E-03  7.872268642E+04  2.084543941E+02  3.280369581E+02  2.679733576E+02  2.767197738E+02  7.270255838E-01 
        23  1.303284284E-02  1.132507638E-01  1.062953057E-02  8.030341259E+04  2.112152044E+02  3.289119558E+02  2.694040512E+02  2.717424247E+02  6.948940562E-01 
        24  1.479928419E-02  1.136234762E-01  1.303021626E-02  8.144980505E+04  2.157097166E+02  3.296062518E+02  2.705426468E+02  2.681588404E+02  6.591140672E-01 
        25  1.649617427E-02  1.139938279E-01  1.547769530E-02  8.248219745E+04  2.206713018E+02  3.302197082E+02  2.715505445E+02  2.650046606E+02  6.226057853E-01 
        26  1.811807173E-02  1.143837002E-01  1.797032872E-02  8.325942932E+04  2.261089392E+02  3.306664114E+02  2.722851176E+02  2.629521403E+02  5.877904836E-01 
        27  1.968166241E-02  1.148013513E-01  2.049621310E-02  8.346622485E+04  2.329310615E+02  3.308041093E+02  2.725116413E+02  2.631148615E+02  5.538672847E-01 
        28  2.119101764E-02  1.152299366E-01  2.305322148E-02  8.301403305E+04  2.413909713E+02  3.306313755E+02  2.722270922E+02  2.655095673E+02  5.193894651E-01 
        29  2.266338778E-02  1.156643914E-01  2.563116057E-02  8.240792957E+04  2.502481090E+02  3.303089228E+02  2.716964256E+02  2.686906343E+02  4.858012234E-01 
        30  2.408077791E-02  1.161159634E-01  2.823658064E-02  8.185656055E+04  2.584388223E+02  3.300467012E+02  2.712653005E+02  2.714717131E+02  4.544674451E-01 
        31  2.544088325E-02  1.165921105E-01  3.086849856E-02  8.130945557E+04  2.665858314E+02  3.297470403E+02  2.707732282E+02  2.744050207E+02  4.242039868E-01 
        32  2.674433127E-02  1.170738851E-01  3.352942364E-02  8.075572632E+04  2.746251302E+02  3.294619608E+02  2.703055303E+02  2.774472861E+02  3.951020627E-01 
        33  2.797950643E-02  1.175445507E-01  3.622298897E-02  8.023725592E+04  2.824341367E+02  3.292439073E+02  2.699481623E+02  2.802516683E+02  3.663903826E-01 
        34  2.916313541E-02  1.180056499E-01  3.893937175E-02  7.994928325E+04  2.896497645E+02  3.291160539E+02  2.697389501E+02  2.821991857E+02  3.375489509E-01 
        35  3.031249539E-02  1.184785399E-01  4.167042727E-02  8.010864969E+04  2.954481584E+02  3.291174364E+02  2.697413969E+02  2.826485205E+02  3.104449539E-01 
        36  3.139929926E-02  1.189405785E-01  4.442941843E-02  8.041178391E+04  3.007308637E+02  3.292187833E+02  2.699073249E+02  2.825175906E+02  2.837173438E-01 
        37  3.242013936E-02  1.193808800E-01  4.721660669E-02  8.096560886E+04  3.057350429E+02  3.293394898E+02  2.701047801E+02  2.814777195E+02  2.546115506E-01 
        38  3.340677803E-02  1.198011670E-01  5.002067675E-02  8.218853259E+04  3.085284671E+02  3.299385507E+02  2.710882308E+02  2.780838070E+02  2.277513891E-01 
        39  3.430413654E-02  1.201853153E-01  5.285529857E-02  8.375071948E+04  3.101985292E+02  3.308812103E+02  2.726399307E+02  2.734881325E+02  2.020086451E-01 
        40  3.515433510E-02  1.205874318E-01  5.570324370E-02  8.563374561E+04  3.106453571E+02  3.319552288E+02  2.744131165E+02  2.678197746E+02  1.786098592E-01 
        41  3.592907297E-02  1.209644065E-01  5.857535950E-02  8.775231055E+04  3.096828976E+02  3.331093836E+02  2.763251090E+02  2.611649137E+02  1.590975490E-01 
        42  3.664355424E-02  1.213334730E-01  6.146049591E-02  8.998473157E+04  3.074016175E+02  3.342743869E+02  2.782610798E+02  2.540570250E+02  1.453595851E-01 
        43  3.727845098E-02  1.217084379E-01  6.437276718E-02  9.211883398E+04  3.043346958E+02  3.353988199E+02  2.801356144E+02  2.472897396E+02  1.378775351E-01 
        44  3.781448665E-02  1.220744111E-01  6.730672953E-02  9.390453760E+04  3.010971718E+02  3.363499184E+02  2.817263556E+02  2.416608267E+02  1.365543264E-01 
        45  3.826762164E-02  1.224563704E-01  7.025293559E-02  9.516029968E+04  2.982321217E+02  3.370720620E+02  2.829370098E+02  2.374827299E+02  1.393514654E-01 
        46  3.856443464E-02  1.228195695E-01  7.317567491E-02  9.588714453E+04  2.961966629E+02  3.375706482E+02  2.837743225E+02  2.350501328E+02  1.443208456E-01 
        47  3.882754171E-02  1.231963568E-01  7.616928387E-02  9.620238922E+04  2.948844934E+02  3.381110865E+02  2.846850734E+02  2.338412399E+02  1.505427505E-01 
        48  3.896508106E-02  1.235573809E-01  7.913505459E-02  9.624982617E+04  2.914647179E+02  3.390281525E+02  2.862438660E+02  2.285110168E+02  1.550263800E-01 
        49  3.903512947E-02  1.239238609E-01  8.213137167E-02  9.625347705E+04  2.832631545E+02  3.408023324E+02  2.892702107E+02  2.144320105E+02  1.604268905E-01 
        50  3.900153017E-02  1.243001337E-01  8.510504302E-02  9.631080463E+04  2.691267435E+02  3.437549238E+02  2.943160052E+02  1.889915328E+02  1.622854253E-01 
        51  3.889299026E-02  1.246700891E-01  8.806950082E-02  9.622978351E+04  2.534219306E+02  3.472297199E+02  3.002991016E+02  1.498324089E+02  1.405915259E-01 
        52  3.870303970E-02  1.250405990E-01  9.105247242E-02  9.636795117E+04  2.441206074E+02  3.501112952E+02  3.052804713E+02  1.136374147E+02  6.768049998E-02 
        53  3.847530202E-02  1.253810613E-01  9.402032493E-02  9.712027789E+04  2.418136646E+02  3.520221107E+02  3.086147424E+02  8.090712118E+01 -2.012209722E-01 
        54  3.809583015E-02  1.257752167E-01  9.695318516E-02  9.919309961E+04  2.399838371E+02  3.532459793E+02  3.107523727E+02  5.410326052E+01 -6.479512081E-01 
        55  3.767199372E-02  1.261489404E-01  9.992435767E-02  1.017834604E+05  2.395261221E+02  3.538444719E+02  3.117970519E+02  4.806250978E+01 -5.802889150E-01 
        56  3.723780727E-02  1.265196365E-01  1.028569506E-01  1.042612374E+05  2.373893551E+02  3.536877990E+02  3.115204943E+02  6.064089940E+01 -2.097421156E-01 
        57  3.672955052E-02  1.269046997E-01  1.057947981E-01  1.059931139E+05  2.375493014E+02  3.522641082E+02  3.090237474E+02  9.086664855E+01  1.716844772E-02 
        58  3.615520807E-02  1.273091289E-01  1.087154776E-01  1.069525559E+05  2.431776748E+02  3.496218691E+02  3.044119968E+02  1.295467048E+02  1.288815807E-01 
        59  3.556812424E-02  1.277144368E-01  1.116309472E-01  1.073470236E+05  2.531580942E+02  3.465823078E+02  2.991395819E+02  1.647401444E+02  1.781955943E-01 
        60  3.495651588E-02  1.281329458E-01  1.145394580E-01  1.075734973E+05  2.624747806E+02  3.443177118E+02  2.952357316E+02  1.872332892E+02  1.938047614E-01 
        61  3.433795015E-02  1.285471243E-01  1.174457346E-01  1.077433798E+05  2.680427160E+02  3.432497058E+02  2.934028678E+02  1.971843481E+02  1.944489491E-01 
        62  3.376061330E-02  1.289460490E-01  1.203607660E-01  1.078425234E+05  2.706099465E+02  3.429694436E+02  2.929232750E+02  2.002160273E+02  1.907844339E-01 
        63  3.331803132E-02  1.293309423E-01  1.232882868E-01  1.078746511E+05  2.720282816E+02  3.429651109E+02  2.929158000E+02  2.010418835E+02  1.868448271E-01 
        64  3.310586596E-02  1.296649637E-01  1.262581306E-01  1.078226297E+05  2.730325031E+02  3.429977236E+02  2.929715002E+02  2.014012014E+02  1.838689445E-01 
        65  3.306639982E-02  1.299493947E-01  1.292495641E-01  1.076981219E+05  2.738599940E+02  3.429940231E+02  2.929651868E+02  2.018163189E+02  1.821748745E-01 
        66  3.322486525E-02  1.302097713E-01  1.322380794E-01  1.075313697E+05  2.747003199E+02  3.429444471E+02  2.928805307E+02  2.026076996E+02  1.819280604E-01 
        67  3.356462385E-02  1.304573038E-01  1.352130229E-01  1.073547873E+05  2.756377410E+02  3.428708194E+02  2.927547405E+02  2.037206969E+02  1.825723071E-01 
        68  3.400410102E-02  1.306751199E-01  1.381765647E-01  1.071625299E+05  2.766188171E+02  3.427840085E+02  2.926065445E+02  2.050112450E+02  1.834850255E-01 
        69  3.451963359E-02  1.308741206E-01  1.411278790E-01  1.069301583E+05  2.776022167E+02  3.426952472E+02  2.924550495E+02  2.064327848E+02  1.849037183E-01 
        70  3.508991352E-02  1.310576265E-01  1.440660380E-01  1.066600538E+05  2.787447166E+02  3.425751758E+02  2.922501299E+02  2.080910850E+02  1.862283524E-01 
        71  3.570211579E-02  1.312503676E-01  1.470000000E-01  1.063210264E+05  2.800572395E+02  3.424383087E+02  2.920176163E+02  2.099577522E+02  1.870212127E-01 
        72 -2.843361623E-02  1.708417341E-01 -4.258217492E-02  8.203523804E+04  1.837805901E+02  3.299707212E+02  2.711400309E+02  3.443197956E+02  1.007634502E+00 
        73 -2.838826984E-02  1.709653765E-01 -3.916427879E-02  8.199679694E+04  1.842412879E+02  3.299553998E+02  2.711149020E+02  3.446142941E+02  1.006594097E+00 
        74 -2.835908450E-02  1.711140563E-01 -3.574649433E-02  8.231629596E+04  1.838787217E+02  3.301515081E+02  2.714373419E+02  3.438031495E+02  1.006371712E+00 
        75 -2.838361088E-02  1.712589164E-01 -3.232950605E-02  8.300922070E+04  1.829529948E+02  3.305365267E+02  2.720708961E+02  3.422578964E+02  1.006791491E+00 
        76 -2.841360827E-02  1.714319125E-01 -2.891476756E-02  8.385788550E+04  1.812791409E+02  3.310324407E+02  2.728877659E+02  3.400238814E+02  1.008598071E+00 
        77 -2.833774301E-02  1.716334782E-01 -2.549995819E-02  8.447050134E+04  1.800978973E+02  3.313626170E+02  2.734323213E+02  3.387051967E+02  1.010393797E+00 
        78 -2.791452343E-02  1.719215161E-01 -2.212016887E-02  8.462793311E+04  1.794090014E+02  3.314445000E+02  2.735675116E+02  3.384643898E+02  1.012388531E+00 
        79 -2.700703325E-02  1.722886754E-01 -1.884820631E-02  8.428328247E+04  1.795876398E+02  3.312328701E+02  2.732183266E+02  3.398401270E+02  1.014193200E+00 
        80 -2.544395246E-02  1.727209334E-01 -1.584518523E-02  8.312125684E+04  1.813620629E+02  3.305768478E+02  2.721373315E+02  3.431793513E+02  1.014005608E+00 
        81 -2.351536464E-02  1.732363399E-01 -1.306823492E-02  8.107725212E+04  1.853714744E+02  3.294134252E+02  2.702255508E+02  3.490882677E+02  1.011008183E+00 
        82 -2.134527601E-02  1.737374909E-01 -1.047435973E-02  7.829216237E+04  1.918954250E+02  3.277831441E+02  2.675579490E+02  3.571922388E+02  1.004067585E+00 
        83 -1.897326710E-02  1.742189522E-01 -8.035177519E-03  7.531586395E+04  1.998889583E+02  3.259855564E+02  2.646313486E+02  3.658072221E+02  9.938611938E-01 
        84 -1.652827274E-02  1.746780172E-01 -5.688541800E-03  7.307866766E+04  2.067908800E+02  3.245985165E+02  2.623837316E+02  3.724160023E+02  9.838816533E-01 
        85 -1.397929867E-02  1.751251779E-01 -3.446989688E-03  7.251898096E+04  2.098378425E+02  3.242484441E+02  2.618177176E+02  3.743234591E+02  9.774337579E-01 
        86 -1.139011487E-02  1.755573757E-01 -1.256774906E-03  7.419962256E+04  2.086303060E+02  3.252997594E+02  2.635195808E+02  3.701794057E+02  9.728989210E-01 
        87 -8.734274343E-03  1.759085237E-01  8.667805443E-04  7.955774005E+04  2.022290330E+02  3.285482683E+02  2.688135998E+02  3.557641835E+02  9.665716542E-01 
        88 -6.073383534E-03  1.762548475E-01  2.984781313E-03  8.896946118E+04  1.905371810E+02  3.337966559E+02  2.774693835E+02  3.297617278E+02  9.624460093E-01 
        89 -3.359730182E-03  1.765819110E-01  5.053045394E-03  9.835557184E+04  1.760504149E+02  3.384101894E+02  2.851896317E+02  3.040164096E+02  9.788373043E-01 
        90 -6.741955509E-04  1.768270807E-01  7.130208361E-03  9.802092915E+04  1.652184990E+02  3.382476716E+02  2.849161983E+02  3.062710773E+02  1.020529346E+00 
        91  2.027043660E-03  1.770783858E-01  9.208570588E-03  7.931327303E+04  1.919364986E+02  3.281072426E+02  2.680910396E+02  3.567627888E+02  1.003497859E+00 
        92  4.731686997E-03  1.772422585E-01  1.127155269E-02  7.205456320E+04  2.149494283E+02  3.239720218E+02  2.613727550E+02  3.780616388E+02  9.674931905E-01 
        93  7.454465044E-03  1.773874983E-01  1.334309669E-02  7.271994180E+04  2.107245919E+02  3.244011009E+02  2.620653434E+02  3.758996121E+02  9.771337558E-01 
        94  1.015989937E-02  1.775222933E-01  1.545596277E-02  7.042352097E+04  2.168534197E+02  3.230223366E+02  2.598466595E+02  3.822954481E+02  9.698923420E-01 
        95  1.284858280E-02  1.775661421E-01  1.756817794E-02  6.705326825E+04  2.275901449E+02  3.207720691E+02  2.562403631E+02  3.918850358E+02  9.545141878E-01 
        96  1.551966693E-02  1.776138061E-01  1.970369132E-02  6.406317090E+04  2.373656898E+02  3.186264772E+02  2.528242173E+02  4.009101954E+02  9.418404670E-01 
        97  1.817410325E-02  1.776258069E-01  2.186017323E-02  6.166497107E+04  2.458561502E+02  3.168880434E+02  2.500710073E+02  4.083031774E+02  9.302830724E-01 
        98  2.080993586E-02  1.775631240E-01  2.403936301E-02  6.005919214E+04  2.527242680E+02  3.157841287E+02  2.483288612E+02  4.131615839E+02  9.185842872E-01 
        99  2.341570779E-02  1.774969016E-01  2.625394818E-02  5.977815942E+04  2.572129946E+02  3.156307163E+02  2.480884147E+02  4.142442560E+02  9.060282055E-01 
       100  2.600295182E-02  1.773818036E-01  2.848806157E-02  6.190737500E+04  2.576385813E+02  3.171649323E+02  2.505235786E+02  4.085018988E+02  8.916148432E-01 
       101  2.856627515E-02  1.771883875E-01  3.074502562E-02  6.768606860E+04  2.522632875E+02  3.211186352E+02  2.568493080E+02  3.921205940E+02  8.743082546E-01 
       102  3.110662233E-02  1.769811535E-01  3.302644514E-02  7.565057227E+04  2.450743399E+02  3.261832619E+02  2.650111275E+02  3.696904602E+02  8.521934580E-01 
       103  3.362247542E-02  1.767159818E-01  3.532849163E-02  8.125769995E+04  2.434358044E+02  3.295120068E+02  2.704025512E+02  3.541864262E+02  8.270842955E-01 
       104  3.610895472E-02  1.763647845E-01  3.765120331E-02  8.166061304E+04  2.500248814E+02  3.296599054E+02  2.706339436E+02  3.538625536E+02  8.043402126E-01 
       105  3.856497337E-02  1.759966372E-01  4.000321012E-02  7.930963516E+04  2.591211387E+02  3.283291142E+02  2.684519318E+02  3.614147044E+02  7.879139171E-01 
       106  4.103059304E-02  1.755360248E-01  4.234569910E-02  7.792787933E+04  2.650869278E+02  3.277367164E+02  2.674814868E+02  3.652883760E+02  7.750850114E-01 
       107  4.340106546E-02  1.750377176E-01  4.474435622E-02  7.948287456E+04  2.667176813E+02  3.288140823E+02  2.692472005E+02  3.607913365E+02  7.610583531E-01 
       108  4.575540032E-02  1.745445103E-01  4.717695363E-02  8.423675427E+04  2.637526014E+02  3.315398679E+02  2.737366865E+02  3.478231354E+02  7.472617952E-01 
       109  4.807037784E-02  1.739953488E-01  4.963532790E-02  9.043994116E+04  2.591027088E+02  3.348214998E+02  2.791804276E+02  3.305924978E+02  7.328593731E-01 
       110  5.034733117E-02  1.734133857E-01  5.212084081E-02  9.521704590E+04  2.577266445E+02  3.371902027E+02  2.831375141E+02  3.178657703E+02  7.161777504E-01 
       111  5.258765486E-02  1.728405975E-01  5.464144749E-02  9.832881934E+04  2.588788528E+02  3.387162590E+02  2.857051659E+02  3.103093472E+02  7.000616193E-01 
       112  5.479076840E-02  1.722430532E-01  5.718902978E-02  1.012558232E+05  2.591720304E+02  3.402068710E+02  2.882253103E+02  3.029078608E+02  6.875651665E-01 
       113  5.694737683E-02  1.716020731E-01  5.976586917E-02  1.043945221E+05  2.583397701E+02  3.417637231E+02  2.908688226E+02  2.939647069E+02  6.772231092E-01 
       114  5.911848447E-02  1.709340834E-01  6.233872565E-02  1.073627534E+05  2.574446244E+02  3.431561548E+02  2.932428457E+02  2.858684820E+02  6.688021862E-01 
       115  6.119351897E-02  1.703313828E-01  6.496775561E-02  1.099294705E+05  2.567560554E+02  3.442879944E+02  2.951806254E+02  2.783539119E+02  6.613555010E-01 
       116  6.319798910E-02  1.696485115E-01  6.765543605E-02  1.123596676E+05  2.560041137E+02  3.453465934E+02  2.969982724E+02  2.716649327E+02  6.554178391E-01 
       117  6.520189851E-02  1.689621155E-01  7.034628384E-02  1.149997622E+05  2.545072460E+02  3.465014763E+02  2.989880409E+02  2.647825813E+02  6.527962983E-01 
       118  6.717992039E-02  1.682884043E-01  7.305807409E-02  1.176854199E+05  2.522113323E+02  3.476405964E+02  3.009568377E+02  2.586373920E+02  6.548372284E-01 
       119  6.910755662E-02  1.675987334E-01  7.579818779E-02  1.190526073E+05  2.512459669E+02  3.481714523E+02  3.018765526E+02  2.547071006E+02  6.547294613E-01 
       120  7.101404689E-02  1.668389198E-01  7.852135391E-02  1.202260266E+05  2.475160733E+02  3.487256896E+02  3.028386040E+02  2.514544612E+02  6.665360527E-01 
