nodenumber     x-coordinate     y-coordinate     z-coordinate         pressure velocity-magnitude      sound-speed      temperature rel-velocity-magnitude relative-velocity-angle 
         1 -2.216901913E-02  1.039879580E-01 -4.300600202E-02  8.755156534E+04  1.539118479E+02  3.330512341E+02  2.762262442E+02  2.357649987E+02  8.595526731E-01 
         2 -2.197401757E-02  1.042260031E-01 -4.002397295E-02  8.746305164E+04  1.544098161E+02  3.330061337E+02  2.761514733E+02  2.363303568E+02  8.590168231E-01 
         3 -2.150271627E-02  1.045375264E-01 -3.708169353E-02  8.738064838E+04  1.549986039E+02  3.329594882E+02  2.760740905E+02  2.369880264E+02  8.584042746E-01 
         4 -2.072290556E-02  1.049359494E-01 -3.421635317E-02  8.727478699E+04  1.556508718E+02  3.329043217E+02  2.759826303E+02  2.377142718E+02  8.577663936E-01 
         5 -1.964621854E-02  1.053757771E-01 -3.145501365E-02  8.713294678E+04  1.563807950E+02  3.328310299E+02  2.758611565E+02  2.384900737E+02  8.569228258E-01 
         6 -1.833909717E-02  1.058829391E-01 -2.880182754E-02  8.698117822E+04  1.571633501E+02  3.327511415E+02  2.757287478E+02  2.393769302E+02  8.562245015E-01 
         7 -1.686396899E-02  1.064019756E-01 -2.624136390E-02  8.683759521E+04  1.579217134E+02  3.326777658E+02  2.756071739E+02  2.403021140E+02  8.558384888E-01 
         8 -1.524276490E-02  1.069101094E-01 -2.376908005E-02  8.664379102E+04  1.588764799E+02  3.325718980E+02  2.754317360E+02  2.414098258E+02  8.550600521E-01 
         9 -1.353040875E-02  1.074492491E-01 -2.136449246E-02  8.640375110E+04  1.601135261E+02  3.324383435E+02  2.752106500E+02  2.427445428E+02  8.535902146E-01 
        10 -1.175719847E-02  1.079385502E-01 -1.899452623E-02  8.619488684E+04  1.614596000E+02  3.323176858E+02  2.750109222E+02  2.439768834E+02  8.511950774E-01 
        11 -9.920451205E-03  1.084473482E-01 -1.667649769E-02  8.605064545E+04  1.628341485E+02  3.322263602E+02  2.748598784E+02  2.449994869E+02  8.478821402E-01 
        12 -8.053093039E-03  1.089314126E-01 -1.437870322E-02  8.612634192E+04  1.636585976E+02  3.322654463E+02  2.749245033E+02  2.449222337E+02  8.436928745E-01 
        13 -6.139911673E-03  1.093816015E-01 -1.211111235E-02  8.663492896E+04  1.627120690E+02  3.325781183E+02  2.754420662E+02  2.432652740E+02  8.435722608E-01 
        14 -4.213714023E-03  1.098625599E-01 -9.853315987E-03  8.745888867E+04  1.606232996E+02  3.330129337E+02  2.761628227E+02  2.405730362E+02  8.462847136E-01 
        15 -2.267252226E-03  1.102821410E-01 -7.616721013E-03  8.857047852E+04  1.565242596E+02  3.335929852E+02  2.771258736E+02  2.371053591E+02  8.577809557E-01 
        16 -3.058463972E-04  1.106716081E-01 -5.380345181E-03  8.947913672E+04  1.497931089E+02  3.340345879E+02  2.778602238E+02  2.340638075E+02  8.851866573E-01 
        17  1.649896870E-03  1.110991589E-01 -3.144821902E-03  8.729173877E+04  1.462880040E+02  3.329021482E+02  2.759803905E+02  2.417240627E+02  9.316209089E-01 
        18  3.605378217E-03  1.114680886E-01 -8.997268064E-04  7.568212891E+04  1.756280789E+02  3.262693434E+02  2.650922809E+02  2.858871250E+02  9.387945831E-01 
        19  5.548952344E-03  1.118349081E-01  1.356589372E-03  6.987297150E+04  2.080753431E+02  3.228365288E+02  2.595445356E+02  3.070865002E+02  8.500563493E-01 
        20  7.472030685E-03  1.121892539E-01  3.633809071E-03  7.285606952E+04  2.134413140E+02  3.245258952E+02  2.622712539E+02  2.989451528E+02  7.872700333E-01 
        21  9.366594022E-03  1.125505666E-01  5.932977735E-03  7.658975067E+04  2.085702246E+02  3.269157157E+02  2.661473172E+02  2.842522905E+02  7.547325836E-01 
        22  1.122147558E-02  1.129077905E-01  8.263617067E-03  7.898133532E+04  2.084353398E+02  3.283344229E+02  2.684599590E+02  2.775023431E+02  7.302439379E-01 
        23  1.303284284E-02  1.132507638E-01  1.062953057E-02  8.049128627E+04  2.115316124E+02  3.291661954E+02  2.698205399E+02  2.738183803E+02  7.012613282E-01 
        24  1.479928419E-02  1.136234762E-01  1.303021626E-02  8.161397481E+04  2.159561908E+02  3.298287324E+02  2.709077666E+02  2.696536537E+02  6.635366369E-01 
        25  1.649617427E-02  1.139938279E-01  1.547769530E-02  8.263258728E+04  2.207696440E+02  3.304047852E+02  2.718549781E+02  2.655809126E+02  6.243281099E-01 
        26  1.811807173E-02  1.143837002E-01  1.797032872E-02  8.336782788E+04  2.261790216E+02  3.307684655E+02  2.724534812E+02  2.630193071E+02  5.877352040E-01 
        27  1.968166241E-02  1.148013513E-01  2.049621310E-02  8.349491467E+04  2.331140234E+02  3.307715700E+02  2.724583561E+02  2.631791930E+02  5.531561063E-01 
        28  2.119101764E-02  1.152299366E-01  2.305322148E-02  8.298147210E+04  2.416345813E+02  3.304403969E+02  2.719129742E+02  2.655553263E+02  5.183370761E-01 
        29  2.266338778E-02  1.156643914E-01  2.563116057E-02  8.236963171E+04  2.502619113E+02  3.300506699E+02  2.712720765E+02  2.684157851E+02  4.847192969E-01 
        30  2.408077791E-02  1.161159634E-01  2.823658064E-02  8.185566071E+04  2.585499318E+02  3.297148800E+02  2.707202754E+02  2.712651083E+02  4.530261271E-01 
        31  2.544088325E-02  1.165921105E-01  3.086849856E-02  8.132373096E+04  2.668367352E+02  3.293503828E+02  2.701222494E+02  2.743070021E+02  4.223690298E-01 
        32  2.674433127E-02  1.170738851E-01  3.352942364E-02  8.075609229E+04  2.748831487E+02  3.290160623E+02  2.695741732E+02  2.772570817E+02  3.928600764E-01 
        33  2.797950643E-02  1.175445507E-01  3.622298897E-02  8.021537292E+04  2.825833291E+02  3.287629064E+02  2.691593393E+02  2.798225557E+02  3.638312282E-01 
        34  2.916313541E-02  1.180056499E-01  3.893937175E-02  7.990885835E+04  2.896240370E+02  3.286643453E+02  2.689979545E+02  2.815841866E+02  3.352601987E-01 
        35  3.031249539E-02  1.184785399E-01  4.167042727E-02  8.004158557E+04  2.952855967E+02  3.288041582E+02  2.692268260E+02  2.820831189E+02  3.090907967E-01 
        36  3.139929926E-02  1.189405785E-01  4.442941843E-02  8.032162543E+04  3.005935796E+02  3.290159761E+02  2.695737078E+02  2.820318648E+02  2.825348972E-01 
        37  3.242013936E-02  1.193808800E-01  4.721660669E-02  8.080147614E+04  3.057173481E+02  3.292914079E+02  2.700254111E+02  2.812519728E+02  2.538277632E-01 
        38  3.340677803E-02  1.198011670E-01  5.002067675E-02  8.196974506E+04  3.086835288E+02  3.299289684E+02  2.710723647E+02  2.782307025E+02  2.275683467E-01 
        39  3.430413654E-02  1.201853153E-01  5.285529857E-02  8.352733057E+04  3.104645014E+02  3.308090115E+02  2.725208530E+02  2.737969341E+02  2.018382773E-01 
        40  3.515433510E-02  1.205874318E-01  5.570324370E-02  8.545658740E+04  3.109100742E+02  3.318854046E+02  2.742977924E+02  2.681149998E+02  1.783889234E-01 
        41  3.592907297E-02  1.209644065E-01  5.857535950E-02  8.770932373E+04  3.098511229E+02  3.331115131E+02  2.763287988E+02  2.613437772E+02  1.589123178E-01 
        42  3.664355424E-02  1.213334730E-01  6.146049591E-02  9.013391125E+04  3.073039603E+02  3.343608966E+02  2.784054861E+02  2.539685140E+02  1.455939836E-01 
        43  3.727845098E-02  1.217084379E-01  6.437276718E-02  9.245103711E+04  3.037963228E+02  3.355415602E+02  2.803745327E+02  2.468488874E+02  1.392620299E-01 
        44  3.781448665E-02  1.220744111E-01  6.730672953E-02  9.436449927E+04  3.001185541E+02  3.365510054E+02  2.820634689E+02  2.408351331E+02  1.389899966E-01 
        45  3.826762164E-02  1.224563704E-01  7.025293559E-02  9.569756006E+04  2.971200371E+02  3.372959347E+02  2.833129754E+02  2.366879388E+02  1.427825626E-01 
        46  3.856443464E-02  1.228195695E-01  7.317567491E-02  9.643763672E+04  2.953381805E+02  3.377568207E+02  2.840877304E+02  2.347124252E+02  1.482446454E-01 
        47  3.882754171E-02  1.231963568E-01  7.616928387E-02  9.677028000E+04  2.935390400E+02  3.384184999E+02  2.852030599E+02  2.326695223E+02  1.539566393E-01 
        48  3.896508106E-02  1.235573809E-01  7.913505459E-02  9.686592383E+04  2.899561653E+02  3.393735962E+02  2.868244705E+02  2.268694458E+02  1.571796983E-01 
        49  3.903512947E-02  1.239238609E-01  8.213137167E-02  9.691210571E+04  2.812581794E+02  3.411630392E+02  2.898799453E+02  2.121756454E+02  1.647065252E-01 
        50  3.900153017E-02  1.243001337E-01  8.510504302E-02  9.688222861E+04  2.648525469E+02  3.443971347E+02  2.954189586E+02  1.838084381E+02  1.771123223E-01 
        51  3.889299026E-02  1.246700891E-01  8.806950082E-02  9.661529816E+04  2.470439405E+02  3.482095299E+02  3.019991536E+02  1.394057100E+02  1.684411895E-01 
        52  3.870303970E-02  1.250405990E-01  9.105247242E-02  9.648050952E+04  2.382347846E+02  3.510840712E+02  3.069734607E+02  9.855490017E+01  6.806192380E-02 
        53  3.847530202E-02  1.253810613E-01  9.402032493E-02  9.673926151E+04  2.351992385E+02  3.524977014E+02  3.094452299E+02  6.444225176E+01 -1.484239179E-01 
        54  3.809583015E-02  1.257752167E-01  9.695318516E-02  9.792069727E+04  2.342882576E+02  3.532182198E+02  3.107010689E+02  4.281329298E+01 -1.092032447E+00 
        55  3.767199372E-02  1.261489404E-01  9.992435767E-02  9.963417700E+04  2.438569393E+02  3.528313732E+02  3.100140543E+02  4.173351240E+01 -1.451944828E+00 
        56  3.723780727E-02  1.265196365E-01  1.028569506E-01  1.017903030E+05  2.493423377E+02  3.519049968E+02  3.083888157E+02  5.629352660E+01 -9.584362777E-01 
        57  3.672955052E-02  1.269046997E-01  1.057947981E-01  1.041676199E+05  2.392879026E+02  3.505433240E+02  3.060101390E+02  9.432361865E+01 -6.547092582E-02 
        58  3.615520807E-02  1.273091289E-01  1.087154776E-01  1.064908030E+05  2.401246247E+02  3.478442230E+02  3.013232727E+02  1.450643835E+02  2.074400443E-01 
        59  3.556812424E-02  1.277144368E-01  1.116309472E-01  1.076500131E+05  2.522386467E+02  3.452463398E+02  2.968338709E+02  1.768349646E+02  2.250482552E-01 
        60  3.495651588E-02  1.281329458E-01  1.145394580E-01  1.079488411E+05  2.615057044E+02  3.438753352E+02  2.944747052E+02  1.885139136E+02  2.036259188E-01 
        61  3.433795015E-02  1.285471243E-01  1.174457346E-01  1.079689451E+05  2.663802025E+02  3.433226914E+02  2.935271459E+02  1.932845519E+02  1.907682759E-01 
        62  3.376061330E-02  1.289460490E-01  1.203607660E-01  1.079727311E+05  2.689624715E+02  3.431412098E+02  2.932167127E+02  1.963344047E+02  1.870656232E-01 
        63  3.331803132E-02  1.293309423E-01  1.232882868E-01  1.079791040E+05  2.705747279E+02  3.431231213E+02  2.931857935E+02  1.981519439E+02  1.854473922E-01 
        64  3.310586596E-02  1.296649637E-01  1.262581306E-01  1.078891497E+05  2.718796973E+02  3.431127815E+02  2.931681330E+02  1.993890727E+02  1.837511732E-01 
        65  3.306639982E-02  1.299493947E-01  1.292495641E-01  1.077273127E+05  2.729876704E+02  3.430596453E+02  2.930773494E+02  2.004331552E+02  1.825787114E-01 
        66  3.322486525E-02  1.302097713E-01  1.322380794E-01  1.075594740E+05  2.740732834E+02  3.429816450E+02  2.929440919E+02  2.015744103E+02  1.820715002E-01 
        67  3.356462385E-02  1.304573038E-01  1.352130229E-01  1.074322185E+05  2.751067045E+02  3.429299995E+02  2.928558597E+02  2.030003403E+02  1.832396149E-01 
        68  3.400410102E-02  1.306751199E-01  1.381765647E-01  1.072729668E+05  2.762967949E+02  3.428518081E+02  2.927223227E+02  2.046857550E+02  1.842852142E-01 
        69  3.451963359E-02  1.308741206E-01  1.411278790E-01  1.070338975E+05  2.775436902E+02  3.427371478E+02  2.925265653E+02  2.063879807E+02  1.851076812E-01 
        70  3.508991352E-02  1.310576265E-01  1.440660380E-01  1.066987263E+05  2.787367461E+02  3.425878263E+02  2.922717276E+02  2.081545129E+02  1.865106632E-01 
        71  3.570211579E-02  1.312503676E-01  1.470000000E-01  1.063188418E+05  2.800937614E+02  3.424098587E+02  2.919682045E+02  2.101945343E+02  1.876537893E-01 
        72 -2.843361623E-02  1.708417341E-01 -4.258217492E-02  8.204643237E+04  1.835956388E+02  3.300052128E+02  2.711968203E+02  3.441635590E+02  1.008014809E+00 
        73 -2.838826984E-02  1.709653765E-01 -3.916427879E-02  8.203736346E+04  1.843923848E+02  3.299431520E+02  2.710948582E+02  3.449286356E+02  1.006719999E+00 
        74 -2.835908450E-02  1.711140563E-01 -3.574649433E-02  8.237648383E+04  1.837852278E+02  3.301606312E+02  2.714523447E+02  3.438565481E+02  1.006842919E+00 
        75 -2.838361088E-02  1.712589164E-01 -3.232950605E-02  8.299196851E+04  1.827083249E+02  3.305375748E+02  2.720726871E+02  3.420367727E+02  1.007321257E+00 
        76 -2.841360827E-02  1.714319125E-01 -2.891476756E-02  8.364254041E+04  1.818983803E+02  3.308908701E+02  2.726546578E+02  3.409067001E+02  1.008122010E+00 
        77 -2.833774301E-02  1.716334782E-01 -2.549995819E-02  8.416647455E+04  1.809426559E+02  3.311681234E+02  2.731117173E+02  3.396383183E+02  1.009267903E+00 
        78 -2.791452343E-02  1.719215161E-01 -2.212016887E-02  8.444521680E+04  1.801369991E+02  3.313186016E+02  2.733599529E+02  3.389673576E+02  1.010923926E+00 
        79 -2.700703325E-02  1.722886754E-01 -1.884820631E-02  8.429664673E+04  1.795749049E+02  3.312540932E+02  2.732536612E+02  3.395695734E+02  1.013917267E+00 
        80 -2.544395246E-02  1.727209334E-01 -1.584518523E-02  8.321065985E+04  1.809125304E+02  3.306590896E+02  2.722730460E+02  3.427235043E+02  1.014949491E+00 
        81 -2.351536464E-02  1.732363399E-01 -1.306823492E-02  8.130851607E+04  1.845611642E+02  3.295529665E+02  2.704546707E+02  3.482718603E+02  1.012595718E+00 
        82 -2.134527601E-02  1.737374909E-01 -1.047435973E-02  7.867189575E+04  1.909111176E+02  3.279895015E+02  2.678958918E+02  3.557872564E+02  1.005174479E+00 
        83 -1.897326710E-02  1.742189522E-01 -8.035177519E-03  7.533284457E+04  1.999123763E+02  3.259326087E+02  2.645465119E+02  3.660024371E+02  9.947461328E-01 
        84 -1.652827274E-02  1.746780172E-01 -5.688541800E-03  7.304684857E+04  2.072323859E+02  3.245398917E+02  2.622893643E+02  3.730682306E+02  9.840564867E-01 
        85 -1.397929867E-02  1.751251779E-01 -3.446989688E-03  7.251993665E+04  2.101841011E+02  3.242434645E+02  2.618099189E+02  3.745375571E+02  9.768006857E-01 
        86 -1.139011487E-02  1.755573757E-01 -1.256774906E-03  7.407807178E+04  2.101020555E+02  3.251327667E+02  2.632489982E+02  3.700816312E+02  9.678259753E-01 
        87 -8.734274343E-03  1.759085237E-01  8.667805443E-04  7.931481012E+04  2.020078597E+02  3.284250669E+02  2.686114450E+02  3.564504988E+02  9.687278038E-01 
        88 -6.073383534E-03  1.762548475E-01  2.984781313E-03  8.869458765E+04  1.898740081E+02  3.336371193E+02  2.772074902E+02  3.306753149E+02  9.661529260E-01 
        89 -3.359730182E-03  1.765819110E-01  5.053045394E-03  9.851522675E+04  1.765549440E+02  3.383256097E+02  2.850472797E+02  3.027563405E+02  9.761803052E-01 
        90 -6.741955509E-04  1.768270807E-01  7.130208361E-03  9.769058887E+04  1.642371508E+02  3.382147878E+02  2.848603401E+02  3.075879948E+02  1.024531729E+00 
        91  2.027043660E-03  1.770783858E-01  9.208570588E-03  7.894625918E+04  1.923424150E+02  3.279319339E+02  2.678076594E+02  3.568042696E+02  1.002953073E+00 
        92  4.731686997E-03  1.772422585E-01  1.127155269E-02  7.259685268E+04  2.133647061E+02  3.241951206E+02  2.617351757E+02  3.745306267E+02  9.660628338E-01 
        93  7.454465044E-03  1.773874983E-01  1.334309669E-02  7.311647046E+04  2.091114082E+02  3.246011900E+02  2.623892236E+02  3.724207336E+02  9.758793241E-01 
        94  1.015989937E-02  1.775222933E-01  1.545596277E-02  7.065280357E+04  2.181367450E+02  3.229260747E+02  2.596921862E+02  3.832998746E+02  9.678715053E-01 
        95  1.284858280E-02  1.775661421E-01  1.756817794E-02  6.722941190E+04  2.277631472E+02  3.208051516E+02  2.562927970E+02  3.920835826E+02  9.546001474E-01 
        96  1.551966693E-02  1.776138061E-01  1.970369132E-02  6.426590027E+04  2.363988698E+02  3.188160019E+02  2.531255784E+02  3.999151425E+02  9.431271087E-01 
        97  1.817410325E-02  1.776258069E-01  2.186017323E-02  6.185774341E+04  2.450128825E+02  3.170588336E+02  2.503417683E+02  4.071636610E+02  9.307154417E-01 
        98  2.080993586E-02  1.775631240E-01  2.403936301E-02  6.015972559E+04  2.529351716E+02  3.157982330E+02  2.483522005E+02  4.131723337E+02  9.180166144E-01 
        99  2.341570779E-02  1.774969016E-01  2.625394818E-02  5.972135010E+04  2.578037772E+02  3.155671759E+02  2.479891934E+02  4.145818586E+02  9.050149526E-01 
       100  2.600295182E-02  1.773818036E-01  2.848806157E-02  6.148097217E+04  2.592766638E+02  3.168570604E+02  2.500339622E+02  4.101018143E+02  8.898578510E-01 
       101  2.856627515E-02  1.771883875E-01  3.074502562E-02  6.682756909E+04  2.550975971E+02  3.205653505E+02  2.559664431E+02  3.952487545E+02  8.719063103E-01 
       102  3.110662233E-02  1.769811535E-01  3.302644514E-02  7.499288501E+04  2.467001047E+02  3.260481653E+02  2.648020306E+02  3.713693142E+02  8.505969197E-01 
       103  3.362247542E-02  1.767159818E-01  3.532849163E-02  8.160789636E+04  2.433531590E+02  3.300528774E+02  2.712967734E+02  3.536505442E+02  8.266997356E-01 
       104  3.610895472E-02  1.763647845E-01  3.765120331E-02  8.287350049E+04  2.476919336E+02  3.306639237E+02  2.722852111E+02  3.504353251E+02  8.061484639E-01 
       105  3.856497337E-02  1.759966372E-01  4.000321012E-02  8.033259750E+04  2.561893839E+02  3.292118284E+02  2.698991367E+02  3.582226025E+02  7.920234618E-01 
       106  4.103059304E-02  1.755360248E-01  4.234569910E-02  7.825194520E+04  2.640460954E+02  3.279852846E+02  2.678880538E+02  3.642472749E+02  7.765763777E-01 
       107  4.340106546E-02  1.750377176E-01  4.474435622E-02  7.913626891E+04  2.668382779E+02  3.286116614E+02  2.689149337E+02  3.613825997E+02  7.617397460E-01 
       108  4.575540032E-02  1.745445103E-01  4.717695363E-02  8.323884583E+04  2.650178368E+02  3.310321026E+02  2.728974209E+02  3.500561199E+02  7.470399393E-01 
       109  4.807037784E-02  1.739953488E-01  4.963532790E-02  8.937818701E+04  2.607109756E+02  3.342880402E+02  2.782925758E+02  3.332614174E+02  7.319808863E-01 
       110  5.034733117E-02  1.734133857E-01  5.212084081E-02  9.492708008E+04  2.580588036E+02  3.369863396E+02  2.827971802E+02  3.186268044E+02  7.165192068E-01 
       111  5.258765486E-02  1.728405975E-01  5.464144749E-02  9.851422070E+04  2.580394096E+02  3.386908379E+02  2.856621666E+02  3.088859367E+02  7.008767389E-01 
       112  5.479076840E-02  1.722430532E-01  5.718902978E-02  1.013004597E+05  2.581638746E+02  3.400668764E+02  2.879879885E+02  3.014213877E+02  6.889756452E-01 
       113  5.694737683E-02  1.716020731E-01  5.976586917E-02  1.044834119E+05  2.574458842E+02  3.415993674E+02  2.905892601E+02  2.935540893E+02  6.800644561E-01 
       114  5.911848447E-02  1.709340834E-01  6.233872565E-02  1.080251387E+05  2.562947974E+02  3.432806541E+02  2.934563704E+02  2.853032409E+02  6.724114706E-01 
       115  6.119351897E-02  1.703313828E-01  6.496775561E-02  1.110271160E+05  2.555017180E+02  3.446740856E+02  2.958431745E+02  2.775945892E+02  6.651390884E-01 
       116  6.319798910E-02  1.696485115E-01  6.765543605E-02  1.134240858E+05  2.546226149E+02  3.457892485E+02  2.977602687E+02  2.705580978E+02  6.593959909E-01 
       117  6.520189851E-02  1.689621155E-01  7.034628384E-02  1.153778960E+05  2.535817289E+02  3.465760527E+02  2.991166620E+02  2.646839056E+02  6.563586816E-01 
       118  6.717992039E-02  1.682884043E-01  7.305807409E-02  1.171766309E+05  2.519136477E+02  3.473014431E+02  3.003699007E+02  2.598374529E+02  6.575330459E-01 
       119  6.910755662E-02  1.675987334E-01  7.579818779E-02  1.186174293E+05  2.507028093E+02  3.478203793E+02  3.012680497E+02  2.566629531E+02  6.591698541E-01 
       120  7.101404689E-02  1.668389198E-01  7.852135391E-02  1.196829968E+05  2.478510200E+02  3.483891051E+02  3.022542112E+02  2.541640275E+02  6.680241297E-01 
