nodenumber     x-coordinate     y-coordinate     z-coordinate         pressure velocity-magnitude      sound-speed      temperature rel-velocity-magnitude relative-velocity-angle 
         1 -2.216901913E-02  1.039879580E-01 -4.300600202E-02  8.756169524E+04  1.537244656E+02  3.330663800E+02  2.762514240E+02  2.356855963E+02  8.603578147E-01 
         2 -2.197401757E-02  1.042260031E-01 -4.002397295E-02  8.746283038E+04  1.543774137E+02  3.330023257E+02  2.761451918E+02  2.363643173E+02  8.593579393E-01 
         3 -2.150271627E-02  1.045375264E-01 -3.708169353E-02  8.737819452E+04  1.550090145E+02  3.329549282E+02  2.760665829E+02  2.370325984E+02  8.585293302E-01 
         4 -2.072290556E-02  1.049359494E-01 -3.421635317E-02  8.727284644E+04  1.555719178E+02  3.329073701E+02  2.759877796E+02  2.375963967E+02  8.578376621E-01 
         5 -1.964621854E-02  1.053757771E-01 -3.145501365E-02  8.713806763E+04  1.563435316E+02  3.328323965E+02  2.758635497E+02  2.383650723E+02  8.567649890E-01 
         6 -1.833909717E-02  1.058829391E-01 -2.880182754E-02  8.698013892E+04  1.573247223E+02  3.327331276E+02  2.756989703E+02  2.395731325E+02  8.560757656E-01 
         7 -1.686396899E-02  1.064019756E-01 -2.624136390E-02  8.677571045E+04  1.581957893E+02  3.326279106E+02  2.755245638E+02  2.405280199E+02  8.551229946E-01 
         8 -1.524276490E-02  1.069101094E-01 -2.376908005E-02  8.655096118E+04  1.591461380E+02  3.325148554E+02  2.753373599E+02  2.415437250E+02  8.540933803E-01 
         9 -1.353040875E-02  1.074492491E-01 -2.136449246E-02  8.632278003E+04  1.603332729E+02  3.323913860E+02  2.751329443E+02  2.428657019E+02  8.528260496E-01 
        10 -1.175719847E-02  1.079385502E-01 -1.899452623E-02  8.611787640E+04  1.614735910E+02  3.322884414E+02  2.749624927E+02  2.439489632E+02  8.509575380E-01 
        11 -9.920451205E-03  1.084473482E-01 -1.667649769E-02  8.605752527E+04  1.628194268E+02  3.322484918E+02  2.748964007E+02  2.449343827E+02  8.476835729E-01 
        12 -8.053093039E-03  1.089314126E-01 -1.437870322E-02  8.617666431E+04  1.630924159E+02  3.323349535E+02  2.750394149E+02  2.445839975E+02  8.456272702E-01 
        13 -6.139911673E-03  1.093816015E-01 -1.211111235E-02  8.669587378E+04  1.628961511E+02  3.325851297E+02  2.754537873E+02  2.431887970E+02  8.423291687E-01 
        14 -4.213714023E-03  1.098625599E-01 -9.853315987E-03  8.752776953E+04  1.606046267E+02  3.330372448E+02  2.762031555E+02  2.405206995E+02  8.461899608E-01 
        15 -2.267252226E-03  1.102821410E-01 -7.616721013E-03  8.861471533E+04  1.562765570E+02  3.336254082E+02  2.771797161E+02  2.370388756E+02  8.588850871E-01 
        16 -3.058463972E-04  1.106716081E-01 -5.380345181E-03  8.934984839E+04  1.498971267E+02  3.339994230E+02  2.778017969E+02  2.344575448E+02  8.861280400E-01 
        17  1.649896870E-03  1.110991589E-01 -3.144821902E-03  8.728222168E+04  1.451776614E+02  3.330331335E+02  2.761979349E+02  2.418986053E+02  9.389126450E-01 
        18  3.605378217E-03  1.114680886E-01 -8.997268064E-04  7.556016162E+04  1.751565800E+02  3.261181726E+02  2.648471088E+02  2.850923228E+02  9.378807731E-01 
        19  5.548952344E-03  1.118349081E-01  1.356589372E-03  6.997663605E+04  2.109801381E+02  3.226668305E+02  2.592724729E+02  3.103001547E+02  8.484531692E-01 
        20  7.472030685E-03  1.121892539E-01  3.633809071E-03  7.306282974E+04  2.131954926E+02  3.246119128E+02  2.624117023E+02  2.979863784E+02  7.843396384E-01 
        21  9.366594022E-03  1.125505666E-01  5.932977735E-03  7.668238666E+04  2.092195374E+02  3.269737849E+02  2.662404075E+02  2.858192985E+02  7.570316340E-01 
        22  1.122147558E-02  1.129077905E-01  8.263617067E-03  7.900508286E+04  2.095645559E+02  3.283232211E+02  2.684417221E+02  2.784427845E+02  7.277243520E-01 
        23  1.303284284E-02  1.132507638E-01  1.062953057E-02  8.055146425E+04  2.114832348E+02  3.292453043E+02  2.699515149E+02  2.723872048E+02  6.961341075E-01 
        24  1.479928419E-02  1.136234762E-01  1.303021626E-02  8.174847678E+04  2.158678038E+02  3.298900155E+02  2.710097703E+02  2.686734207E+02  6.608678005E-01 
        25  1.649617427E-02  1.139938279E-01  1.547769530E-02  8.278437634E+04  2.206989841E+02  3.304343038E+02  2.719041698E+02  2.651903756E+02  6.240205113E-01 
        26  1.811807173E-02  1.143837002E-01  1.797032872E-02  8.346706641E+04  2.258214545E+02  3.307847066E+02  2.724803886E+02  2.627083440E+02  5.891322866E-01 
        27  1.968166241E-02  1.148013513E-01  2.049621310E-02  8.353363464E+04  2.326031516E+02  3.307873111E+02  2.724846518E+02  2.632015071E+02  5.562325600E-01 
        28  2.119101764E-02  1.152299366E-01  2.305322148E-02  8.300987915E+04  2.414822415E+02  3.304440560E+02  2.719193628E+02  2.667848862E+02  5.238069578E-01 
        29  2.266338778E-02  1.156643914E-01  2.563116057E-02  8.238493781E+04  2.504127191E+02  3.300722294E+02  2.713079622E+02  2.702949258E+02  4.907816423E-01 
        30  2.408077791E-02  1.161159634E-01  2.823658064E-02  8.183624628E+04  2.586615956E+02  3.297962043E+02  2.708542550E+02  2.725281825E+02  4.570774934E-01 
        31  2.544088325E-02  1.165921105E-01  3.086849856E-02  8.129217725E+04  2.670074406E+02  3.294809718E+02  2.703368742E+02  2.747453423E+02  4.230992794E-01 
        32  2.674433127E-02  1.170738851E-01  3.352942364E-02  8.073515100E+04  2.753653557E+02  3.291345801E+02  2.697687931E+02  2.774972298E+02  3.911461374E-01 
        33  2.797950643E-02  1.175445507E-01  3.622298897E-02  8.021753369E+04  2.833104929E+02  3.288275454E+02  2.692656219E+02  2.802494354E+02  3.614945272E-01 
        34  2.916313541E-02  1.180056499E-01  3.893937175E-02  7.993091721E+04  2.903517223E+02  3.286697330E+02  2.690071250E+02  2.819832508E+02  3.329187250E-01 
        35  3.031249539E-02  1.184785399E-01  4.167042727E-02  8.005721512E+04  2.959879633E+02  3.287662935E+02  2.691650078E+02  2.823342079E+02  3.062999211E-01 
        36  3.139929926E-02  1.189405785E-01  4.442941843E-02  8.030924976E+04  3.012866156E+02  3.289522564E+02  2.694697370E+02  2.823842079E+02  2.801865928E-01 
        37  3.242013936E-02  1.193808800E-01  4.721660669E-02  8.080002032E+04  3.063963054E+02  3.292528173E+02  2.699624785E+02  2.816982140E+02  2.518922930E-01 
        38  3.340677803E-02  1.198011670E-01  5.002067675E-02  8.200446930E+04  3.093216585E+02  3.299338431E+02  2.710805711E+02  2.785621698E+02  2.254225143E-01 
        39  3.430413654E-02  1.201853153E-01  5.285529857E-02  8.366149072E+04  3.106737051E+02  3.308668156E+02  2.726163635E+02  2.736519585E+02  2.001241967E-01 
        40  3.515433510E-02  1.205874318E-01  5.570324370E-02  8.574499121E+04  3.105500698E+02  3.320288429E+02  2.745354195E+02  2.674065495E+02  1.775388923E-01 
        41  3.592907297E-02  1.209644065E-01  5.857535950E-02  8.814437427E+04  3.088476725E+02  3.333615646E+02  2.767444639E+02  2.601464338E+02  1.597535526E-01 
        42  3.664355424E-02  1.213334730E-01  6.146049591E-02  9.066788379E+04  3.058051310E+02  3.346762953E+02  2.789313731E+02  2.523949666E+02  1.478258248E-01 
        43  3.727845098E-02  1.217084379E-01  6.437276718E-02  9.300657056E+04  3.021964178E+02  3.358160086E+02  2.808332443E+02  2.451922827E+02  1.418457581E-01 
        44  3.781448665E-02  1.220744111E-01  6.730672953E-02  9.484421680E+04  2.987164135E+02  3.367357330E+02  2.823729696E+02  2.395357385E+02  1.420228449E-01 
        45  3.826762164E-02  1.224563704E-01  7.025293559E-02  9.602943616E+04  2.958598993E+02  3.374151926E+02  2.835131850E+02  2.357602807E+02  1.466330121E-01 
        46  3.856443464E-02  1.228195695E-01  7.317567491E-02  9.662524219E+04  2.941639252E+02  3.378289337E+02  2.842091141E+02  2.339960175E+02  1.525560953E-01 
        47  3.882754171E-02  1.231963568E-01  7.616928387E-02  9.684954929E+04  2.927787242E+02  3.384166467E+02  2.852002910E+02  2.323155204E+02  1.574615521E-01 
        48  3.896508106E-02  1.235573809E-01  7.913505459E-02  9.682825000E+04  2.892623596E+02  3.394308472E+02  2.869245834E+02  2.263539124E+02  1.606754549E-01 
        49  3.903512947E-02  1.239238609E-01  8.213137167E-02  9.663349976E+04  2.802009110E+02  3.413677537E+02  2.902324643E+02  2.104613343E+02  1.682586267E-01 
        50  3.900153017E-02  1.243001337E-01  8.510504302E-02  9.631924414E+04  2.652122610E+02  3.443478194E+02  2.953349636E+02  1.819381173E+02  1.714948802E-01 
        51  3.889299026E-02  1.246700891E-01  8.806950082E-02  9.614467212E+04  2.478959780E+02  3.479606383E+02  3.015623069E+02  1.372754748E+02  1.469337953E-01 
        52  3.870303970E-02  1.250405990E-01  9.105247242E-02  9.629337354E+04  2.395527039E+02  3.507549295E+02  3.063971791E+02  9.366483271E+01  6.302702299E-03 
        53  3.847530202E-02  1.253810613E-01  9.402032493E-02  9.729895093E+04  2.396257467E+02  3.524581212E+02  3.093738198E+02  5.677165880E+01 -4.716971437E-01 
        54  3.809583015E-02  1.257752167E-01  9.695318516E-02  9.800729883E+04  2.312614975E+02  3.537879601E+02  3.116993141E+02  3.566418219E+01 -1.477933615E+00 
        55  3.767199372E-02  1.261489404E-01  9.992435767E-02  9.851402271E+04  2.408490992E+02  3.525385122E+02  3.095009460E+02  4.364927626E+01 -1.493900161E+00 
        56  3.723780727E-02  1.265196365E-01  1.028569506E-01  1.005311801E+05  2.439089090E+02  3.511986617E+02  3.071533378E+02  5.980041033E+01 -1.162103362E+00 
        57  3.672955052E-02  1.269046997E-01  1.057947981E-01  1.034320924E+05  2.354126039E+02  3.503739681E+02  3.057130985E+02  9.439505363E+01 -1.200263080E-01 
        58  3.615520807E-02  1.273091289E-01  1.087154776E-01  1.060280164E+05  2.425787621E+02  3.487093134E+02  3.028174667E+02  1.390499821E+02  1.377245649E-01 
        59  3.556812424E-02  1.277144368E-01  1.116309472E-01  1.069880393E+05  2.565935318E+02  3.464036810E+02  2.988271830E+02  1.762525648E+02  1.916823601E-01 
        60  3.495651588E-02  1.281329458E-01  1.145394580E-01  1.074185508E+05  2.637889771E+02  3.443465514E+02  2.952831454E+02  1.944566917E+02  2.109220894E-01 
        61  3.433795015E-02  1.285471243E-01  1.174457346E-01  1.079423099E+05  2.633091617E+02  3.435691338E+02  2.939490414E+02  1.945531547E+02  2.151413646E-01 
        62  3.376061330E-02  1.289460490E-01  1.203607660E-01  1.083191111E+05  2.625260201E+02  3.435210872E+02  2.938665390E+02  1.915294788E+02  2.108132809E-01 
        63  3.331803132E-02  1.293309423E-01  1.232882868E-01  1.083537890E+05  2.656329151E+02  3.433602029E+02  2.935914273E+02  1.938953977E+02  2.013877532E-01 
        64  3.310586596E-02  1.296649637E-01  1.262581306E-01  1.081901336E+05  2.698116264E+02  3.431081419E+02  2.931604905E+02  1.980011615E+02  1.917651958E-01 
        65  3.306639982E-02  1.299493947E-01  1.292495641E-01  1.079059630E+05  2.728152561E+02  3.429105072E+02  2.928227594E+02  2.011607337E+02  1.863953079E-01 
        66  3.322486525E-02  1.302097713E-01  1.322380794E-01  1.076347979E+05  2.745874996E+02  3.428087136E+02  2.926488866E+02  2.032938792E+02  1.852167534E-01 
        67  3.356462385E-02  1.304573038E-01  1.352130229E-01  1.073969949E+05  2.757760644E+02  3.427385997E+02  2.925291755E+02  2.046954669E+02  1.853345270E-01 
        68  3.400410102E-02  1.306751199E-01  1.381765647E-01  1.071755691E+05  2.766376886E+02  3.426908369E+02  2.924476302E+02  2.059509432E+02  1.868198658E-01 
        69  3.451963359E-02  1.308741206E-01  1.411278790E-01  1.069303630E+05  2.776128547E+02  3.426134763E+02  2.923155372E+02  2.073466785E+02  1.881687676E-01 
        70  3.508991352E-02  1.310576265E-01  1.440660380E-01  1.066614133E+05  2.786133313E+02  3.425258002E+02  2.921659122E+02  2.087182841E+02  1.893002673E-01 
        71  3.570211579E-02  1.312503676E-01  1.470000000E-01  1.063083184E+05  2.798768654E+02  3.423872299E+02  2.919291039E+02  2.104354744E+02  1.898381282E-01 
        72 -2.843361623E-02  1.708417341E-01 -4.258217492E-02  8.204973608E+04  1.839695616E+02  3.299604578E+02  2.711233063E+02  3.445496235E+02  1.007542115E+00 
        73 -2.838826984E-02  1.709653765E-01 -3.916427879E-02  8.207956891E+04  1.842556500E+02  3.299654825E+02  2.711316338E+02  3.449657512E+02  1.007378413E+00 
        74 -2.835908450E-02  1.711140563E-01 -3.574649433E-02  8.233861395E+04  1.835112665E+02  3.301696019E+02  2.714674826E+02  3.433537886E+02  1.007056354E+00 
        75 -2.838361088E-02  1.712589164E-01 -3.232950605E-02  8.284995532E+04  1.832402191E+02  3.304125042E+02  2.718672218E+02  3.429152136E+02  1.007306818E+00 
        76 -2.841360827E-02  1.714319125E-01 -2.891476756E-02  8.342584204E+04  1.823790936E+02  3.307453732E+02  2.724149761E+02  3.415090117E+02  1.007793505E+00 
        77 -2.833774301E-02  1.716334782E-01 -2.549995819E-02  8.406261835E+04  1.807209917E+02  3.311413045E+02  2.730673795E+02  3.395557383E+02  1.009918820E+00 
        78 -2.791452343E-02  1.719215161E-01 -2.212016887E-02  8.432769629E+04  1.803501978E+02  3.312535152E+02  2.732524319E+02  3.393792419E+02  1.010885675E+00 
        79 -2.700703325E-02  1.722886754E-01 -1.884820631E-02  8.420276196E+04  1.800649552E+02  3.311723232E+02  2.731185551E+02  3.402620382E+02  1.013445642E+00 
        80 -2.544395246E-02  1.727209334E-01 -1.584518523E-02  8.322853326E+04  1.815072488E+02  3.305778546E+02  2.721392472E+02  3.438145001E+02  1.014837354E+00 
        81 -2.351536464E-02  1.732363399E-01 -1.306823492E-02  8.137717981E+04  1.850298561E+02  3.295257735E+02  2.704103944E+02  3.480827287E+02  1.010628216E+00 
        82 -2.134527601E-02  1.737374909E-01 -1.047435973E-02  7.868300562E+04  1.910777781E+02  3.280134575E+02  2.679344923E+02  3.563580325E+02  1.005555557E+00 
        83 -1.897326710E-02  1.742189522E-01 -8.035177519E-03  7.574243280E+04  1.985797148E+02  3.262069683E+02  2.649916644E+02  3.646381063E+02  9.962423346E-01 
        84 -1.652827274E-02  1.746780172E-01 -5.688541800E-03  7.355606006E+04  2.054390762E+02  3.248735600E+02  2.628294363E+02  3.705340152E+02  9.849397559E-01 
        85 -1.397929867E-02  1.751251779E-01 -3.446989688E-03  7.268179456E+04  2.096516809E+02  3.243022499E+02  2.619058347E+02  3.749402905E+02  9.799779654E-01 
        86 -1.139011487E-02  1.755573757E-01 -1.256774906E-03  7.365746851E+04  2.111497395E+02  3.249060559E+02  2.628841386E+02  3.714186115E+02  9.673322905E-01 
        87 -8.734274343E-03  1.759085237E-01  8.667805443E-04  7.877894696E+04  2.040007644E+02  3.279866927E+02  2.678994720E+02  3.581007462E+02  9.657502593E-01 
        88 -6.073383534E-03  1.762548475E-01  2.984781313E-03  8.852148401E+04  1.913189027E+02  3.334579105E+02  2.769070183E+02  3.317551434E+02  9.637052026E-01 
        89 -3.359730182E-03  1.765819110E-01  5.053045394E-03  9.816847925E+04  1.755874072E+02  3.382886846E+02  2.849853305E+02  3.068921213E+02  9.840361681E-01 
        90 -6.741955509E-04  1.768270807E-01  7.130208361E-03  9.780634505E+04  1.665953445E+02  3.380293924E+02  2.845479690E+02  3.114072894E+02  1.022234902E+00 
        91  2.027043660E-03  1.770783858E-01  9.208570588E-03  7.909799175E+04  1.931098698E+02  3.280684486E+02  2.680274426E+02  3.600896980E+02  1.006089860E+00 
        92  4.731686997E-03  1.772422585E-01  1.127155269E-02  7.296729379E+04  2.147170129E+02  3.243804001E+02  2.620333830E+02  3.766307058E+02  9.657250817E-01 
        93  7.454465044E-03  1.773874983E-01  1.334309669E-02  7.354056880E+04  2.101688013E+02  3.247347347E+02  2.626059694E+02  3.731296010E+02  9.738329663E-01 
        94  1.015989937E-02  1.775222933E-01  1.545596277E-02  7.087373852E+04  2.180206512E+02  3.230484641E+02  2.598909476E+02  3.825292088E+02  9.669847409E-01 
        95  1.284858280E-02  1.775661421E-01  1.756817794E-02  6.735031604E+04  2.282267572E+02  3.207475686E+02  2.562016357E+02  3.918185999E+02  9.527055062E-01 
        96  1.551966693E-02  1.776138061E-01  1.970369132E-02  6.427397791E+04  2.370301201E+02  3.186469855E+02  2.528582406E+02  4.003928299E+02  9.423043104E-01 
        97  1.817410325E-02  1.776258069E-01  2.186017323E-02  6.172370020E+04  2.456370015E+02  3.168847022E+02  2.500673833E+02  4.090604701E+02  9.330265233E-01 
        98  2.080993586E-02  1.775631240E-01  2.403936301E-02  5.991198279E+04  2.530233850E+02  3.156667576E+02  2.481461625E+02  4.141732292E+02  9.200806208E-01 
        99  2.341570779E-02  1.774969016E-01  2.625394818E-02  5.942400354E+04  2.585959868E+02  3.152972565E+02  2.475644178E+02  4.160859451E+02  9.059813060E-01 
       100  2.600295182E-02  1.773818036E-01  2.848806157E-02  6.121234106E+04  2.597679625E+02  3.166768503E+02  2.497498274E+02  4.109957438E+02  8.902350664E-01 
       101  2.856627515E-02  1.771883875E-01  3.074502562E-02  6.660738306E+04  2.548913336E+02  3.205085182E+02  2.558781004E+02  3.946382723E+02  8.713695668E-01 
       102  3.110662233E-02  1.769811535E-01  3.302644514E-02  7.497831348E+04  2.465072670E+02  3.260106783E+02  2.647475481E+02  3.701693850E+02  8.496848252E-01 
       103  3.362247542E-02  1.767159818E-01  3.532849163E-02  8.193737744E+04  2.419868541E+02  3.303133879E+02  2.717286339E+02  3.501313629E+02  8.259675968E-01 
       104  3.610895472E-02  1.763647845E-01  3.765120331E-02  8.326116455E+04  2.455904055E+02  3.311343379E+02  2.730618949E+02  3.464796247E+02  8.069610270E-01 
       105  3.856497337E-02  1.759966372E-01  4.000321012E-02  8.052834222E+04  2.544727293E+02  3.295564127E+02  2.704667238E+02  3.547060947E+02  7.916685836E-01 
       106  4.103059304E-02  1.755360248E-01  4.234569910E-02  7.826022241E+04  2.642006376E+02  3.279422364E+02  2.678203100E+02  3.632867565E+02  7.747573852E-01 
       107  4.340106546E-02  1.750377176E-01  4.474435622E-02  7.880587204E+04  2.677808132E+02  3.283965230E+02  2.685625861E+02  3.618366951E+02  7.597083109E-01 
       108  4.575540032E-02  1.745445103E-01  4.717695363E-02  8.242448877E+04  2.668139355E+02  3.305406919E+02  2.720869858E+02  3.516526961E+02  7.440930447E-01 
       109  4.807037784E-02  1.739953488E-01  4.963532790E-02  8.857079175E+04  2.619743671E+02  3.338825321E+02  2.776215229E+02  3.347060766E+02  7.304223385E-01 
       110  5.034733117E-02  1.734133857E-01  5.212084081E-02  9.478850928E+04  2.577871494E+02  3.371178360E+02  2.830210171E+02  3.184992943E+02  7.174702547E-01 
       111  5.258765486E-02  1.728405975E-01  5.464144749E-02  9.900434033E+04  2.569028950E+02  3.392497711E+02  2.866067867E+02  3.078569202E+02  7.035284862E-01 
       112  5.479076840E-02  1.722430532E-01  5.718902978E-02  1.018396204E+05  2.572419233E+02  3.406353912E+02  2.889514160E+02  3.000833044E+02  6.904075090E-01 
       113  5.694737683E-02  1.716020731E-01  5.976586917E-02  1.048261575E+05  2.568447955E+02  3.419906726E+02  2.912555985E+02  2.923494520E+02  6.805268223E-01 
       114  5.911848447E-02  1.709340834E-01  6.233872565E-02  1.081655767E+05  2.553997613E+02  3.435331378E+02  2.938876837E+02  2.836397752E+02  6.733335116E-01 
       115  6.119351897E-02  1.703313828E-01  6.496775561E-02  1.108505593E+05  2.548207703E+02  3.446985588E+02  2.958851390E+02  2.758741488E+02  6.655436866E-01 
       116  6.319798910E-02  1.696485115E-01  6.765543605E-02  1.130382417E+05  2.539191284E+02  3.455847440E+02  2.974082866E+02  2.700893207E+02  6.616359390E-01 
       117  6.520189851E-02  1.689621155E-01  7.034628384E-02  1.152666953E+05  2.517529879E+02  3.465243263E+02  2.990277100E+02  2.645135088E+02  6.634339299E-01 
       118  6.717992039E-02  1.682884043E-01  7.305807409E-02  1.169992866E+05  2.502315283E+02  3.471909418E+02  3.001790266E+02  2.595747061E+02  6.638860926E-01 
       119  6.910755662E-02  1.675987334E-01  7.579818779E-02  1.184186202E+05  2.491838803E+02  3.477126656E+02  3.010816355E+02  2.568702300E+02  6.656732289E-01 
       120  7.101404689E-02  1.668389198E-01  7.852135391E-02  1.195785228E+05  2.474087079E+02  3.482486901E+02  3.020106938E+02  2.554855638E+02  6.713529914E-01 
